timestamp [ms];ecg [uV]
0.0;-129
7.7;-187
15.4;-204
23.1;-177
30.8;-166
38.5;-238
46.2;-200
53.8;-199
61.5;-210
69.2;-192
76.9;-174
84.6;-179
92.3;-235
100.0;-240
107.7;-175
115.4;-182
123.1;-188
130.8;-223
138.5;-193
146.2;-215
153.8;-187
161.5;-212
169.2;-270
176.9;-238
184.6;-187
192.3;-178
200.0;-231
207.7;-220
215.4;-165
223.1;-154
230.8;-214
238.5;-267
246.2;-265
253.8;-180
261.5;-114
269.2;-217
276.9;-300
284.6;-253
292.3;-189
300.0;-167
307.7;-143
315.4;-232
323.1;-282
330.8;-217
338.5;-183
346.2;-200
353.8;-223
361.5;-220
369.2;-203
376.9;-232
384.6;-258
392.3;-218
400.0;-190
407.7;-195
415.4;-210
423.1;-228
430.8;-223
438.5;-210
446.2;-242
453.8;-214
461.5;-169
469.2;-171
476.9;-218
484.6;-238
492.3;-241
500.0;-237
507.7;-197
515.4;-214
523.1;-186
530.8;-147
538.5;-249
546.2;-269
553.8;-205
561.5;-199
569.2;-221
576.9;-256
584.6;-221
592.3;-188
600.0;-217
607.7;-225
615.4;-177
623.1;-191
630.8;-223
638.5;-172
646.2;-224
653.8;-243
661.5;-169
669.2;-176
676.9;-218
684.6;-192
692.3;-179
700.0;-203
707.7;-217
715.4;-194
723.1;-202
730.8;-195
738.5;-180
746.2;-215
753.8;-232
761.5;-174
769.2;-155
776.9;-254
784.6;-240
792.3;-187
800.0;-206
807.7;-183
815.4;-187
823.1;-168
830.8;-127
838.5;-249
846.2;-324
853.8;-214
861.5;-163
869.2;-194
876.9;-203
884.6;-179
892.3;-155
900.0;-222
907.7;-184
915.4;-188
923.1;-237
930.8;-134
938.5;-47
946.2;-174
953.8;-184
961.5;-103
969.2;-101
976.9;-161
984.6;-184
992.3;-150
1000.0;-155
1007.7;-145
1015.4;-141
1023.1;-145
1030.8;-159
1038.5;-240
1046.2;-283
1053.8;-232
1061.5;-208
1069.2;-246
1076.9;-231
1084.6;-189
1092.3;-207
1100.0;-226
1107.7;-198
1115.4;-176
1123.1;-191
1130.8;-126
1138.5;-22
1146.2;87
1153.8;323
1161.5;157
1169.2;-375
1176.9;-515
1184.6;-429
1192.3;-409
1200.0;-479
1207.7;-492
1215.4;-379
1223.1;-313
1230.8;-392
1238.5;-399
1246.2;-352
1253.8;-281
1261.5;-185
1269.2;-184
1276.9;-224
1284.6;-217
1292.3;-202
1300.0;-186
1307.7;-206
1315.4;-211
1323.1;-164
1330.8;-180
1338.5;-182
1346.2;-104
1353.8;-168
1361.5;-212
1369.2;-140
1376.9;-139
1384.6;-137
1392.3;-121
1400.0;-107
1407.7;-86
1415.4;-87
1423.1;-68
1430.8;-10
1438.5;-8
1446.2;-35
1453.8;11
1461.5;65
1469.2;26
1476.9;-16
1484.6;4
1492.3;59
1500.0;38
1507.7;-38
1515.4;-28
1523.1;-33
1530.8;-95
1538.5;-106
1546.2;-123
1553.8;-166
1561.5;-165
1569.2;-148
1576.9;-193
1584.6;-228
1592.3;-188
1600.0;-166
1607.7;-184
1615.4;-191
1623.1;-155
1630.8;-131
1638.5;-105
1646.2;-123
1653.8;-146
1661.5;-131
1669.2;-116
1676.9;-149
1684.6;-170
1692.3;-82
1700.0;-88
1707.7;-149
1715.4;-139
1723.1;-117
1730.8;-130
1738.5;-162
1746.2;-147
1753.8;-123
1761.5;-121
1769.2;-97
1776.9;-136
1784.6;-169
1792.3;-114
1800.0;-147
1807.7;-121
1815.4;-93
1823.1;-29
1830.8;242
1838.5;506
1846.2;117
1853.8;-394
1861.5;-414
1869.2;-313
1876.9;-343
1884.6;-400
1892.3;-286
1900.0;-280
1907.7;-408
1915.4;-370
1923.1;-273
1930.8;-255
1938.5;-185
1946.2;-147
1953.8;-156
1961.5;-119
1969.2;-94
1976.9;-119
1984.6;-162
1992.3;-134
2000.0;-120
2007.7;-147
2015.4;-124
2023.1;-137
2030.8;-116
2038.5;-88
2046.2;-116
2053.8;-76
2061.5;-35
2069.2;-22
2076.9;-12
2084.6;6
2092.3;60
2100.0;113
2107.7;106
2115.4;54
2123.1;108
2130.8;133
2138.5;123
2146.2;124
2153.8;73
2161.5;33
2169.2;27
2176.9;-14
2184.6;-50
2192.3;-121
2200.0;-92
2207.7;-119
2215.4;-160
2223.1;-143
2230.8;-131
2238.5;-155
2246.2;-189
2253.8;-180
2261.5;-150
2269.2;-133
2276.9;-163
2284.6;-164
2292.3;-128
2300.0;-144
2307.7;-202
2315.4;-192
2323.1;-165
2330.8;-131
2338.5;-111
2346.2;-157
2353.8;-218
2361.5;-205
2369.2;-128
2376.9;-98
2384.6;-127
2392.3;-114
2400.0;-131
2407.7;-192
2415.4;-222
2423.1;-220
2430.8;-175
2438.5;-156
2446.2;-176
2453.8;-153
2461.5;-121
2469.2;-133
2476.9;-125
2484.6;-134
2492.3;-149
2500.0;-125
2507.7;-184
2515.4;-165
2523.1;-138
2530.8;-130
2538.5;-153
2546.2;-103
2553.8;-2
2561.5;245
2569.2;559
2576.9;297
2584.6;-374
2592.3;-575
2600.0;-439
2607.7;-332
2615.4;-385
2623.1;-475
2630.8;-382
2638.5;-324
2646.2;-366
2653.8;-332
2661.5;-263
2669.2;-271
2676.9;-270
2684.6;-183
2692.3;-124
2700.0;-70
2707.7;-92
2715.4;-269
2723.1;-246
2730.8;-129
2738.5;-122
2746.2;-120
2753.8;-120
2761.5;-151
2769.2;-138
2776.9;-110
2784.6;-100
2792.3;-113
2800.0;-127
2807.7;-85
2815.4;-47
2823.1;1
2830.8;54
2838.5;60
2846.2;49
2853.8;53
2861.5;88
2869.2;90
2876.9;72
2884.6;86
2892.3;58
2900.0;10
2907.7;-12
2915.4;-90
2923.1;-103
2930.8;-44
2938.5;-90
2946.2;-211
2953.8;-203
2961.5;-128
2969.2;-135
2976.9;-180
2984.6;-187
2992.3;-202
3000.0;-191
3007.7;-151
3015.4;-181
3023.1;-214
3030.8;-156
3038.5;-88
3046.2;-140
3053.8;-171
3061.5;-137
3069.2;-112
3076.9;-159
3084.6;-194
3092.3;-185
3100.0;-143
3107.7;-143
3115.4;-210
3123.1;-168
3130.8;-151
3138.5;-173
3146.2;-156
3153.8;-159
3161.5;-228
3169.2;-258
3176.9;-215
3184.6;-138
3192.3;-98
3200.0;-211
3207.7;-274
3215.4;-217
3223.1;-183
3230.8;-196
3238.5;-195
3246.2;-121
3253.8;-19
3261.5;-286
3269.2;-388
3276.9;-212
3284.6;-167
3292.3;-164
3300.0;-120
3307.7;-90
3315.4;-210
3323.1;-344
3330.8;-252
3338.5;-146
3346.2;-158
3353.8;-163
3361.5;-177
3369.2;-219
3376.9;-205
3384.6;-179
3392.3;-162
3400.0;-176
3407.7;-209
3415.4;-209
3423.1;-203
3430.8;-213
3438.5;-193
3446.2;-152
3453.8;-148
3461.5;-248
3469.2;-269
3476.9;-210
3484.6;-194
3492.3;-186
3500.0;-155
3507.7;-176
3515.4;-201
3523.1;-134
3530.8;-128
3538.5;-182
3546.2;-285
3553.8;-262
3561.5;-170
3569.2;-198
3576.9;-238
3584.6;-172
3592.3;-123
3600.0;-193
3607.7;-238
3615.4;-200
3623.1;-204
3630.8;-218
3638.5;-242
3646.2;-198
3653.8;-151
3661.5;-167
3669.2;-214
3676.9;-261
3684.6;-230
3692.3;-173
3700.0;-209
3707.7;-304
3715.4;-284
3723.1;-189
3730.8;-210
3738.5;-276
3746.2;-239
3753.8;-190
3761.5;-194
3769.2;-228
3776.9;-240
3784.6;-257
3792.3;-248
3800.0;-239
3807.7;-213
3815.4;-233
3823.1;-229
3830.8;-212
3838.5;-231
3846.2;-259
3853.8;-189
3861.5;-186
3869.2;-262
3876.9;-297
3884.6;-234
3892.3;-209
3900.0;-226
3907.7;-228
3915.4;-239
3923.1;-212
3930.8;-256
3938.5;-250
3946.2;-262
3953.8;-266
3961.5;-192
3969.2;-196
3976.9;-237
3984.6;-254
3992.3;-205
4000.0;-199
4007.7;-252
4015.4;-237
4023.1;-208
4030.8;-208
4038.5;-262
4046.2;-256
4053.8;-209
4061.5;-240
4069.2;-182
4076.9;-196
4084.6;-267
4092.3;-252
4100.0;-204
4107.7;-186
4115.4;-208
4123.1;-193
4130.8;-201
4138.5;-237
4146.2;-237
4153.8;-186
4161.5;-174
4169.2;-228
4176.9;-223
4184.6;-165
4192.3;-130
4200.0;-158
4207.7;-168
4215.4;-116
4223.1;-110
4230.8;-200
4238.5;-249
4246.2;-204
4253.8;-134
4261.5;-112
4269.2;-225
4276.9;-341
4284.6;-315
4292.3;-237
4300.0;-202
4307.7;-216
4315.4;-276
4323.1;-282
4330.8;-241
4338.5;-201
4346.2;-134
4353.8;-243
4361.5;-330
4369.2;-237
4376.9;-152
4384.6;28
4392.3;358
4400.0;562
4407.7;158
4415.4;-515
4423.1;-612
4430.8;-502
4438.5;-495
4446.2;-546
4453.8;-482
4461.5;-394
4469.2;-373
4476.9;-467
4484.6;-502
4492.3;-383
4500.0;-251
4507.7;-196
4515.4;-267
4523.1;-284
4530.8;-196
4538.5;-204
4546.2;-275
4553.8;-314
4561.5;-261
4569.2;-205
4576.9;-191
4584.6;-247
4592.3;-225
4600.0;-148
4607.7;-130
4615.4;-182
4623.1;-177
4630.8;-184
4638.5;-166
4646.2;-99
4653.8;-100
4661.5;-100
4669.2;-97
4676.9;-38
4684.6;11
4692.3;30
4700.0;-3
4707.7;-31
4715.4;20
4723.1;85
4730.8;-18
4738.5;-94
4746.2;-49
4753.8;-34
4761.5;-36
4769.2;-57
4776.9;-163
4784.6;-183
4792.3;-182
4800.0;-178
4807.7;-174
4815.4;-260
4823.1;-248
4830.8;-265
4838.5;-261
4846.2;-243
4853.8;-230
4861.5;-168
4869.2;-162
4876.9;-182
4884.6;-213
4892.3;-199
4900.0;-181
4907.7;-155
4915.4;-200
4923.1;-207
4930.8;-135
4938.5;-148
4946.2;-175
4953.8;-175
4961.5;-147
4969.2;-198
4976.9;-211
4984.6;-178
4992.3;-212
5000.0;-186
5007.7;-168
5015.4;-226
5023.1;-203
5030.8;-168
5038.5;-199
5046.2;-192
5053.8;-176
5061.5;-24
5069.2;300
5076.9;570
5084.6;213
5092.3;-444
5100.0;-559
5107.7;-485
5115.4;-437
5123.1;-489
5130.8;-456
5138.5;-375
5146.2;-412
5153.8;-409
5161.5;-374
5169.2;-284
5176.9;-153
5184.6;-172
5192.3;-207
5200.0;-201
5207.7;-235
5215.4;-206
5223.1;-166
5230.8;-189
5238.5;-207
5246.2;-191
5253.8;-127
5261.5;-131
5269.2;-162
5276.9;-186
5284.6;-173
5292.3;-87
5300.0;-100
5307.7;-122
5315.4;-66
5323.1;32
5330.8;46
5338.5;-45
5346.2;-16
5353.8;43
5361.5;58
5369.2;47
5376.9;47
5384.6;14
5392.3;-43
5400.0;-69
5407.7;-127
5415.4;-150
5423.1;-130
5430.8;-151
5438.5;-244
5446.2;-298
5453.8;-248
5461.5;-189
5469.2;-113
5476.9;-137
5484.6;-396
5492.3;-361
5500.0;-187
5507.7;-199
5515.4;-277
5523.1;-256
5530.8;-236
5538.5;-280
5546.2;-252
5553.8;-262
5561.5;-257
5569.2;-178
5576.9;-254
5584.6;-279
5592.3;-218
5600.0;-208
5607.7;-182
5615.4;-182
5623.1;-241
5630.8;-283
5638.5;-232
5646.2;-227
5653.8;-216
5661.5;-246
5669.2;-252
5676.9;-230
5684.6;-228
5692.3;-260
5700.0;-252
5707.7;-211
5715.4;-212
5723.1;-226
5730.8;-256
5738.5;-254
5746.2;-197
5753.8;-191
5761.5;-155
5769.2;-25
5776.9;224
5784.6;378
5792.3;-98
5800.0;-593
5807.7;-551
5815.4;-451
5823.1;-393
5830.8;-419
5838.5;-493
5846.2;-517
5853.8;-479
5861.5;-387
5869.2;-337
5876.9;-306
5884.6;-272
5892.3;-261
5900.0;-244
5907.7;-227
5915.4;-176
5923.1;-153
5930.8;-241
5938.5;-334
5946.2;-256
5953.8;-180
5961.5;-175
5969.2;-201
5976.9;-244
5984.6;-211
5992.3;-170
6000.0;-80
6007.7;-106
6015.4;-247
6023.1;-182
6030.8;-66
6038.5;-50
6046.2;5
6053.8;29
6061.5;-55
6069.2;-71
6076.9;9
6084.6;72
6092.3;20
6100.0;-17
6107.7;-94
6115.4;-137
6123.1;-102
6130.8;-114
6138.5;-119
6146.2;-88
6153.8;-235
6161.5;-331
6169.2;-251
6176.9;-210
6184.6;-204
6192.3;-106
6200.0;-222
6207.7;-410
6215.4;-279
6223.1;-183
6230.8;-185
6238.5;-239
6246.2;-280
6253.8;-238
6261.5;-193
6269.2;-221
6276.9;-226
6284.6;-204
6292.3;-219
6300.0;-213
6307.7;-233
6315.4;-253
6323.1;-232
6330.8;-198
6338.5;-207
6346.2;-253
6353.8;-255
6361.5;-246
6369.2;-219
6376.9;-231
6384.6;-242
6392.3;-242
6400.0;-260
6407.7;-234
6415.4;-264
6423.1;-248
6430.8;-225
6438.5;-246
6446.2;-279
6453.8;-286
6461.5;-240
6469.2;-243
6476.9;-254
6484.6;-255
6492.3;-244
6500.0;-263
6507.7;-236
6515.4;-243
6523.1;-273
6530.8;-211
6538.5;-238
6546.2;-268
6553.8;-242
6561.5;-257
6569.2;-245
6576.9;-238
6584.6;-251
6592.3;-237
6600.0;-206
6607.7;-232
6615.4;-302
6623.1;-250
6630.8;-222
6638.5;-235
6646.2;-237
6653.8;-251
6661.5;-250
6669.2;-295
6676.9;-280
6684.6;-233
6692.3;-243
6700.0;-254
6707.7;-247
6715.4;-242
6723.1;-242
6730.8;-256
6738.5;-216
6746.2;-245
6753.8;-291
6761.5;-248
6769.2;-239
6776.9;-278
6784.6;-274
6792.3;-200
6800.0;-221
6807.7;-270
6815.4;-260
6823.1;-279
6830.8;-224
6838.5;-194
6846.2;-269
6853.8;-294
6861.5;-260
6869.2;-275
6876.9;-291
6884.6;-236
6892.3;-161
6900.0;-190
6907.7;-275
6915.4;-318
6923.1;-273
6930.8;-235
6938.5;-237
6946.2;-189
6953.8;-184
6961.5;-266
6969.2;-286
6976.9;-260
6984.6;-219
6992.3;-208
7000.0;-240
7007.7;-242
7015.4;-222
7023.1;-248
7030.8;-248
7038.5;-221
7046.2;-224
7053.8;-235
7061.5;-246
7069.2;-225
7076.9;-267
7084.6;-307
7092.3;-244
7100.0;-188
7107.7;-192
7115.4;-198
7123.1;-205
7130.8;-284
7138.5;-274
7146.2;-237
7153.8;-239
7161.5;-217
7169.2;-216
7176.9;-227
7184.6;-227
7192.3;-205
7200.0;-234
7207.7;-218
7215.4;-188
7223.1;-242
7230.8;-246
7238.5;-255
7246.2;-225
7253.8;-212
7261.5;-257
7269.2;-237
7276.9;-201
7284.6;-236
7292.3;-247
7300.0;-212
7307.7;-219
7315.4;-223
7323.1;-222
7330.8;-249
7338.5;-256
7346.2;-224
7353.8;-235
7361.5;-246
7369.2;-217
7376.9;-196
7384.6;-250
7392.3;-224
7400.0;-162
7407.7;-230
7415.4;-270
7423.1;-210
7430.8;-166
7438.5;-123
7446.2;-136
7453.8;-206
7461.5;-179
7469.2;-170
7476.9;-180
7484.6;-193
7492.3;-177
7500.0;-188
7507.7;-207
7515.4;-201
7523.1;-205
7530.8;-235
7538.5;-269
7546.2;-277
7553.8;-234
7561.5;-238
7569.2;-261
7576.9;-241
7584.6;-207
7592.3;-231
7600.0;-218
7607.7;-214
7615.4;-253
7623.1;-213
7630.8;-147
7638.5;-27
7646.2;231
7653.8;188
7661.5;-334
7669.2;-548
7676.9;-495
7684.6;-435
7692.3;-464
7700.0;-455
7707.7;-430
7715.4;-446
7723.1;-418
7730.8;-420
7738.5;-383
7746.2;-317
7753.8;-234
7761.5;-208
7769.2;-252
7776.9;-228
7784.6;-228
7792.3;-267
7800.0;-273
7807.7;-238
7815.4;-204
7823.1;-193
7830.8;-207
7838.5;-221
7846.2;-170
7853.8;-215
7861.5;-254
7869.2;-173
7876.9;-152
7884.6;-109
7892.3;-113
7900.0;-139
7907.7;-71
7915.4;-46
7923.1;-39
7930.8;-26
7938.5;-42
7946.2;-61
7953.8;-53
7961.5;19
7969.2;18
7976.9;-71
7984.6;-79
7992.3;-51
8000.0;-79
8007.7;-61
8015.4;-124
8023.1;-136
8030.8;-127
8038.5;-211
8046.2;-242
8053.8;-246
8061.5;-243
8069.2;-204
8076.9;-280
8084.6;-266
8092.3;-187
8100.0;-149
8107.7;-165
8115.4;-158
8123.1;-144
8130.8;-154
8138.5;-171
8146.2;-221
8153.8;-195
8161.5;-164
8169.2;-196
8176.9;-179
8184.6;-180
8192.3;-182
8200.0;-152
8207.7;-157
8215.4;-205
8223.1;-168
8230.8;-136
8238.5;-187
8246.2;-249
8253.8;-213
8261.5;-156
8269.2;-160
8276.9;-197
8284.6;-189
8292.3;-88
8300.0;96
8307.7;276
8315.4;25
8323.1;-386
8330.8;-487
8338.5;-431
8346.2;-355
8353.8;-424
8361.5;-422
8369.2;-372
8376.9;-429
8384.6;-413
8392.3;-328
8400.0;-277
8407.7;-305
8415.4;-268
8423.1;-175
8430.8;-168
8438.5;-228
8446.2;-247
8453.8;-217
8461.5;-198
8469.2;-181
8476.9;-180
8484.6;-167
8492.3;-212
8500.0;-220
8507.7;-177
8515.4;-187
8523.1;-186
8530.8;-145
8538.5;-131
8546.2;-128
8553.8;-93
8561.5;-70
8569.2;-60
8576.9;-61
8584.6;-24
8592.3;27
8600.0;-17
8607.7;-62
8615.4;-54
8623.1;-34
8630.8;-44
8638.5;-111
8646.2;-140
8653.8;-134
8661.5;-150
8669.2;-177
8676.9;-207
8684.6;-228
8692.3;-197
8700.0;-249
8707.7;-274
8715.4;-204
8723.1;-152
8730.8;-142
8738.5;-241
8746.2;-285
8753.8;-219
8761.5;-158
8769.2;-149
8776.9;-243
8784.6;-256
8792.3;-200
8800.0;-191
8807.7;-184
8815.4;-209
8823.1;-192
8830.8;-207
8838.5;-228
8846.2;-242
8853.8;-211
8861.5;-214
8869.2;-249
8876.9;-231
8884.6;-235
8892.3;-229
8900.0;-237
8907.7;-257
8915.4;-248
8923.1;-207
8930.8;-224
8938.5;-273
8946.2;-269
8953.8;-216
8961.5;-204
8969.2;-226
8976.9;-268
8984.6;-246
8992.3;-252
9000.0;-235
9007.7;-236
9015.4;-238
9023.1;-230
9030.8;-260
9038.5;-256
9046.2;-263
9053.8;-213
9061.5;-226
9069.2;-278
9076.9;-263
9084.6;-259
9092.3;-250
9100.0;-217
9107.7;-252
9115.4;-250
9123.1;-226
9130.8;-252
9138.5;-289
9146.2;-278
9153.8;-240
9161.5;-250
9169.2;-271
9176.9;-243
9184.6;-254
9192.3;-284
9200.0;-263
9207.7;-230
9215.4;-225
9223.1;-273
9230.8;-302
9238.5;-257
9246.2;-267
9253.8;-250
9261.5;-208
9269.2;-275
9276.9;-262
9284.6;-212
9292.3;-302
9300.0;-300
9307.7;-229
9315.4;-239
9323.1;-267
9330.8;-238
9338.5;-236
9346.2;-279
9353.8;-272
9361.5;-223
9369.2;-225
9376.9;-246
9384.6;-276
9392.3;-267
9400.0;-263
9407.7;-248
9415.4;-259
9423.1;-260
9430.8;-222
9438.5;-250
9446.2;-287
9453.8;-294
9461.5;-272
9469.2;-248
9476.9;-268
9484.6;-290
9492.3;-279
9500.0;-263
9507.7;-286
9515.4;-285
9523.1;-271
9530.8;-227
9538.5;-265
9546.2;-317
9553.8;-281
9561.5;-255
9569.2;-254
9576.9;-290
9584.6;-289
9592.3;-256
9600.0;-242
9607.7;-269
9615.4;-293
9623.1;-289
9630.8;-268
9638.5;-269
9646.2;-297
9653.8;-291
9661.5;-252
9669.2;-208
9676.9;-254
9684.6;-317
9692.3;-278
9700.0;-278
9707.7;-322
9715.4;-272
9723.1;-210
9730.8;-255
9738.5;-290
9746.2;-224
9753.8;-226
9761.5;-219
9769.2;-151
9776.9;-189
9784.6;-271
9792.3;-241
9800.0;-192
9807.7;-184
9815.4;-231
9823.1;-229
9830.8;-233
9838.5;-250
9846.2;-260
9853.8;-296
9861.5;-285
9869.2;-275
9876.9;-312
9884.6;-323
9892.3;-253
9900.0;-256
9907.7;-305
9915.4;-291
9923.1;-239
9930.8;-257
9938.5;-299
9946.2;-272
9953.8;-235
9961.5;-158
9969.2;8
9976.9;145
9984.6;35
9992.3;-342
10000.0;-562
10007.7;-561
10015.4;-550
10023.1;-495
10030.8;-514
10038.5;-464
10046.2;-410
10053.8;-452
10061.5;-459
10069.2;-403
10076.9;-347
10084.6;-283
10092.3;-268
10100.0;-231
10107.7;-216
10115.4;-243
10123.1;-285
10130.8;-270
10138.5;-284
10146.2;-286
10153.8;-254
10161.5;-220
10169.2;-199
10176.9;-220
10184.6;-263
10192.3;-245
10200.0;-193
10207.7;-192
10215.4;-128
10223.1;-141
10230.8;-202
10238.5;-132
10246.2;-159
10253.8;-155
10261.5;-90
10269.2;-48
10276.9;-26
10284.6;-71
10292.3;-63
10300.0;9
10307.7;-51
10315.4;-162
10323.1;-92
10330.8;-57
10338.5;-144
10346.2;-203
10353.8;-204
10361.5;-204
10369.2;-209
10376.9;-252
10384.6;-276
10392.3;-275
10400.0;-311
10407.7;-333
10415.4;-324
10423.1;-307
10430.8;-290
10438.5;-291
10446.2;-263
10453.8;-242
10461.5;-246
10469.2;-247
10476.9;-284
10484.6;-264
10492.3;-224
10500.0;-224
10507.7;-279
10515.4;-273
10523.1;-220
10530.8;-204
10538.5;-247
10546.2;-303
10553.8;-273
10561.5;-210
10569.2;-206
10576.9;-293
10584.6;-287
10592.3;-267
10600.0;-295
10607.7;-289
10615.4;-249
10623.1;-215
10630.8;-228
10638.5;-120
10646.2;157
10653.8;243
10661.5;-218
10669.2;-583
10676.9;-549
10684.6;-434
10692.3;-472
10700.0;-546
10707.7;-435
10715.4;-426
10723.1;-467
10730.8;-422
10738.5;-394
10746.2;-378
10753.8;-337
10761.5;-251
10769.2;-186
10776.9;-227
10784.6;-366
10792.3;-354
10800.0;-279
10807.7;-264
10815.4;-163
10823.1;-192
10830.8;-348
10838.5;-324
10846.2;-263
10853.8;-238
10861.5;-203
10869.2;-197
10876.9;-141
10884.6;-141
10892.3;-258
10900.0;-193
10907.7;-120
10915.4;-113
10923.1;-59
10930.8;-28
10938.5;-28
10946.2;-95
10953.8;-145
10961.5;-106
10969.2;-96
10976.9;-131
10984.6;-131
10992.3;-206
11000.0;-250
11007.7;-290
11015.4;-304
11023.1;-247
11030.8;-230
11038.5;-279
11046.2;-351
11053.8;-357
11061.5;-294
11069.2;-278
11076.9;-305
11084.6;-282
11092.3;-247
11100.0;-266
11107.7;-307
11115.4;-305
11123.1;-254
11130.8;-250
11138.5;-306
11146.2;-331
11153.8;-310
11161.5;-274
11169.2;-257
11176.9;-271
11184.6;-262
11192.3;-292
11200.0;-311
11207.7;-262
11215.4;-279
11223.1;-316
11230.8;-317
11238.5;-310
11246.2;-290
11253.8;-258
11261.5;-322
11269.2;-365
11276.9;-333
11284.6;-296
11292.3;-210
11300.0;-167
11307.7;-426
11315.4;-469
11323.1;-297
11330.8;-262
11338.5;-314
11346.2;-324
11353.8;-293
11361.5;-231
11369.2;-237
11376.9;-342
11384.6;-399
11392.3;-338
11400.0;-271
11407.7;-297
11415.4;-337
11423.1;-328
11430.8;-306
11438.5;-308
11446.2;-316
11453.8;-276
11461.5;-236
11469.2;-317
11476.9;-372
11484.6;-365
11492.3;-278
11500.0;-230
11507.7;-311
11515.4;-369
11523.1;-363
11530.8;-317
11538.5;-286
11546.2;-280
11553.8;-291
11561.5;-302
11569.2;-297
11576.9;-281
11584.6;-243
11592.3;-289
11600.0;-327
11607.7;-300
11615.4;-279
11623.1;-275
11630.8;-317
11638.5;-293
11646.2;-294
11653.8;-274
11661.5;-265
11669.2;-324
11676.9;-322
11684.6;-273
11692.3;-231
11700.0;-272
11707.7;-352
11715.4;-281
11723.1;-262
11730.8;-312
11738.5;-303
11746.2;-287
11753.8;-294
11761.5;-297
11769.2;-282
11776.9;-287
11784.6;-254
11792.3;-211
11800.0;-286
11807.7;-350
11815.4;-317
11823.1;-265
11830.8;-245
11838.5;-239
11846.2;-247
11853.8;-286
11861.5;-294
11869.2;-254
11876.9;-242
11884.6;-232
11892.3;-249
11900.0;-251
11907.7;-269
11915.4;-288
11923.1;-267
11930.8;-257
11938.5;-281
11946.2;-291
11953.8;-268
11961.5;-250
11969.2;-245
11976.9;-273
11984.6;-287
11992.3;-239
12000.0;-250
12007.7;-275
12015.4;-260
12023.1;-255
12030.8;-235
12038.5;-280
12046.2;-313
12053.8;-258
12061.5;-213
12069.2;-210
12076.9;-246
12084.6;-269
12092.3;-235
12100.0;-187
12107.7;-174
12115.4;-178
12123.1;-201
12130.8;-180
12138.5;-143
12146.2;-173
12153.8;-260
12161.5;-264
12169.2;-197
12176.9;-190
12184.6;-246
12192.3;-265
12200.0;-254
12207.7;-226
12215.4;-253
12223.1;-299
12230.8;-269
12238.5;-260
12246.2;-288
12253.8;-273
12261.5;-255
12269.2;-292
12276.9;-303
12284.6;-240
12292.3;-185
12300.0;-152
12307.7;-112
12315.4;64
12323.1;312
12330.8;-14
12338.5;-534
12346.2;-568
12353.8;-494
12361.5;-468
12369.2;-496
12376.9;-486
12384.6;-417
12392.3;-412
12400.0;-446
12407.7;-485
12415.4;-440
12423.1;-323
12430.8;-262
12438.5;-278
12446.2;-288
12453.8;-251
12461.5;-217
12469.2;-250
12476.9;-279
12484.6;-277
12492.3;-232
12500.0;-202
12507.7;-275
12515.4;-261
12523.1;-169
12530.8;-235
12538.5;-266
12546.2;-190
12553.8;-188
12561.5;-192
12569.2;-177
12576.9;-142
12584.6;-113
12592.3;-101
12600.0;-68
12607.7;-78
12615.4;-102
12623.1;-81
12630.8;-27
12638.5;-39
12646.2;-63
12653.8;-62
12661.5;-57
12669.2;-55
12676.9;-57
12684.6;-76
12692.3;-118
12700.0;-160
12707.7;-171
12715.4;-173
12723.1;-203
12730.8;-266
12738.5;-264
12746.2;-268
12753.8;-283
12761.5;-278
12769.2;-258
12776.9;-255
12784.6;-199
12792.3;-161
12800.0;-197
12807.7;-232
12815.4;-243
12823.1;-208
12830.8;-189
12838.5;-182
12846.2;-172
12853.8;-230
12861.5;-252
12869.2;-175
12876.9;-172
12884.6;-249
12892.3;-241
12900.0;-174
12907.7;-202
12915.4;-259
12923.1;-226
12930.8;-197
12938.5;-184
12946.2;-191
12953.8;-244
12961.5;-236
12969.2;-220
12976.9;-91
12984.6;222
12992.3;235
13000.0;-280
13007.7;-567
13015.4;-453
13023.1;-379
13030.8;-395
13038.5;-380
13046.2;-363
13053.8;-436
13061.5;-462
13069.2;-439
13076.9;-396
13084.6;-293
13092.3;-146
13100.0;-199
13107.7;-321
13115.4;-296
13123.1;-227
13130.8;-215
13138.5;-197
13146.2;-235
13153.8;-253
13161.5;-201
13169.2;-202
13176.9;-259
13184.6;-247
13192.3;-184
13200.0;-152
13207.7;-183
13215.4;-206
13223.1;-129
13230.8;-109
13238.5;-122
13246.2;-67
13253.8;-56
13261.5;-79
13269.2;-57
13276.9;-39
13284.6;-79
13292.3;-55
13300.0;-35
13307.7;-76
13315.4;-88
13323.1;-113
13330.8;-184
13338.5;-197
13346.2;-169
13353.8;-224
13361.5;-246
13369.2;-291
13376.9;-272
13384.6;-258
13392.3;-283
13400.0;-251
13407.7;-243
13415.4;-230
13423.1;-244
13430.8;-246
13438.5;-245
13446.2;-258
13453.8;-233
13461.5;-233
13469.2;-251
13476.9;-247
13484.6;-238
13492.3;-210
13500.0;-202
13507.7;-269
13515.4;-252
13523.1;-226
13530.8;-257
13538.5;-278
13546.2;-254
13553.8;-241
13561.5;-250
13569.2;-227
13576.9;-246
13584.6;-247
13592.3;-263
13600.0;-266
13607.7;-259
13615.4;-281
13623.1;-257
13630.8;-225
13638.5;-263
13646.2;-264
13653.8;-248
13661.5;-232
13669.2;-232
13676.9;-258
13684.6;-251
13692.3;-241
13700.0;-238
13707.7;-258
13715.4;-261
13723.1;-258
13730.8;-237
13738.5;-270
13746.2;-317
13753.8;-261
13761.5;-213
13769.2;-219
13776.9;-259
13784.6;-320
13792.3;-295
13800.0;-211
13807.7;-255
13815.4;-309
13823.1;-246
13830.8;-223
13838.5;-266
13846.2;-279
13853.8;-256
13861.5;-245
13869.2;-204
13876.9;-213
13884.6;-289
13892.3;-304
13900.0;-232
13907.7;-248
13915.4;-259
13923.1;-245
13930.8;-276
13938.5;-266
13946.2;-260
13953.8;-219
13961.5;-227
13969.2;-262
13976.9;-264
13984.6;-263
13992.3;-270
14000.0;-259
14007.7;-246
14015.4;-217
14023.1;-258
14030.8;-281
14038.5;-224
14046.2;-257
14053.8;-246
14061.5;-211
14069.2;-214
14076.9;-256
14084.6;-280
14092.3;-221
14100.0;-235
14107.7;-262
14115.4;-247
14123.1;-239
14130.8;-240
14138.5;-250
14146.2;-243
14153.8;-215
14161.5;-237
14169.2;-238
14176.9;-276
14184.6;-287
14192.3;-191
14200.0;-216
14207.7;-316
14215.4;-283
14223.1;-224
14230.8;-179
14238.5;-229
14246.2;-275
14253.8;-298
14261.5;-272
14269.2;-214
14276.9;-218
14284.6;-209
14292.3;-265
14300.0;-311
14307.7;-263
14315.4;-246
14323.1;-226
14330.8;-180
14338.5;-256
14346.2;-296
14353.8;-271
14361.5;-230
14369.2;-192
14376.9;-253
14384.6;-274
14392.3;-231
14400.0;-214
14407.7;-204
14415.4;-176
14423.1;-153
14430.8;-161
14438.5;-178
14446.2;-168
14453.8;-198
14461.5;-167
14469.2;-187
14476.9;-238
14484.6;-230
14492.3;-241
14500.0;-240
14507.7;-248
14515.4;-264
14523.1;-240
14530.8;-211
14538.5;-223
14546.2;-263
14553.8;-279
14561.5;-242
14569.2;-229
14576.9;-273
14584.6;-277
14592.3;-211
14600.0;-137
14607.7;-114
14615.4;-111
14623.1;27
14630.8;218
14638.5;-81
14646.2;-506
14653.8;-510
14661.5;-454
14669.2;-458
14676.9;-491
14684.6;-425
14692.3;-378
14700.0;-450
14707.7;-453
14715.4;-399
14723.1;-331
14730.8;-287
14738.5;-232
14746.2;-238
14753.8;-220
14761.5;-225
14769.2;-256
14776.9;-235
14784.6;-227
14792.3;-195
14800.0;-205
14807.7;-248
14815.4;-243
14823.1;-174
14830.8;-198
14838.5;-187
14846.2;-178
14853.8;-211
14861.5;-148
14869.2;-138
14876.9;-146
14884.6;-116
14892.3;-110
14900.0;-93
14907.7;-83
14915.4;-81
14923.1;-57
14930.8;-56
14938.5;-54
14946.2;-41
14953.8;-63
14961.5;-38
14969.2;-31
14976.9;-76
14984.6;-144
14992.3;-144
15000.0;-117
15007.7;-136
15015.4;-172
15023.1;-189
15030.8;-232
15038.5;-240
15046.2;-254
15053.8;-234
15061.5;-178
15069.2;-214
15076.9;-215
15084.6;-118
15092.3;-147
15100.0;-241
15107.7;-192
15115.4;-139
15123.1;-151
15130.8;-173
15138.5;-177
15146.2;-147
15153.8;-135
15161.5;-123
15169.2;-138
15176.9;-151
15184.6;-128
15192.3;-132
15200.0;-92
15207.7;-98
15215.4;-173
15223.1;-124
15230.8;-105
15238.5;-132
15246.2;-164
15253.8;-120
15261.5;-126
15269.2;-116
15276.9;-71
15284.6;-106
15292.3;25
15300.0;254
15307.7;278
15315.4;-174
15323.1;-434
15330.8;-289
15338.5;-255
15346.2;-388
15353.8;-384
15361.5;-218
15369.2;-240
15376.9;-348
15384.6;-366
15392.3;-240
15400.0;-168
15407.7;-130
15415.4;-77
15423.1;-110
15430.8;-173
15438.5;-121
15446.2;-73
15453.8;-136
15461.5;-136
15469.2;-87
15476.9;-82
15484.6;-104
15492.3;-72
15500.0;-56
15507.7;-81
15515.4;-73
15523.1;-71
15530.8;-48
15538.5;-22
15546.2;-20
15553.8;13
15561.5;45
15569.2;52
15576.9;62
15584.6;100
15592.3;73
15600.0;100
15607.7;116
15615.4;89
15623.1;78
15630.8;69
15638.5;45
15646.2;20
15653.8;-25
15661.5;-62
15669.2;-70
15676.9;-87
15684.6;-81
15692.3;-114
15700.0;-116
15707.7;-123
15715.4;-197
15723.1;-189
15730.8;-144
15738.5;-128
15746.2;-150
15753.8;-137
15761.5;-94
15769.2;-145
15776.9;-185
15784.6;-118
15792.3;-149
15800.0;-196
15807.7;-209
15815.4;-219
15823.1;-185
15830.8;-174
15838.5;-194
15846.2;-159
15853.8;-90
15861.5;-137
15869.2;-189
15876.9;-147
15884.6;-160
15892.3;-169
15900.0;-189
15907.7;-237
15915.4;-179
15923.1;-124
15930.8;-169
15938.5;-250
15946.2;-210
15953.8;-160
15961.5;-102
15969.2;-139
15976.9;-270
15984.6;-261
15992.3;-178
16000.0;-104
16007.7;-69
16015.4;-219
16023.1;-263
16030.8;-146
16038.5;-44
16046.2;96
16053.8;341
16061.5;310
16069.2;-310
16076.9;-570
16084.6;-465
16092.3;-343
16100.0;-358
16107.7;-473
16115.4;-406
16123.1;-345
16130.8;-390
16138.5;-401
16146.2;-358
16153.8;-257
16161.5;-183
16169.2;-144
16176.9;-220
16184.6;-257
16192.3;-177
16200.0;-155
16207.7;-208
16215.4;-226
16223.1;-195
16230.8;-157
16238.5;-185
16246.2;-195
16253.8;-172
16261.5;-171
16269.2;-93
16276.9;-70
16284.6;-184
16292.3;-204
16300.0;-115
16307.7;-50
16315.4;6
16323.1;-24
16330.8;-65
16338.5;4
16346.2;25
16353.8;1
16361.5;35
16369.2;26
16376.9;-57
16384.6;-76
16392.3;-84
16400.0;-69
16407.7;-127
16415.4;-181
16423.1;-168
16430.8;-174
16438.5;-193
16446.2;-212
16453.8;-181
16461.5;-151
16469.2;-202
16476.9;-225
16484.6;-219
16492.3;-218
16500.0;-201
16507.7;-186
16515.4;-164
16523.1;-160
16530.8;-177
16538.5;-163
16546.2;-165
16553.8;-199
16561.5;-171
16569.2;-143
16576.9;-195
16584.6;-234
16592.3;-209
16600.0;-177
16607.7;-161
16615.4;-197
16623.1;-196
16630.8;-199
16638.5;-223
16646.2;-231
16653.8;-204
16661.5;-206
16669.2;-225
16676.9;-187
16684.6;-151
16692.3;-231
16700.0;-229
16707.7;-173
16715.4;-230
16723.1;-220
16730.8;-179
16738.5;-203
16746.2;-225
16753.8;-224
16761.5;-204
16769.2;-167
16776.9;-181
16784.6;-226
16792.3;-205
16800.0;-231
16807.7;-240
16815.4;-202
16823.1;-165
16830.8;-199
16838.5;-226
16846.2;-242
16853.8;-226
16861.5;-223
16869.2;-195
16876.9;-212
16884.6;-212
16892.3;-205
16900.0;-211
16907.7;-217
16915.4;-205
16923.1;-207
16930.8;-220
16938.5;-188
16946.2;-186
16953.8;-216
16961.5;-229
16969.2;-194
16976.9;-196
16984.6;-189
16992.3;-191
17000.0;-246
17007.7;-238
17015.4;-199
17023.1;-218
17030.8;-209
17038.5;-204
17046.2;-211
17053.8;-237
17061.5;-238
17069.2;-178
17076.9;-179
17084.6;-214
17092.3;-187
17100.0;-216
17107.7;-286
17115.4;-254
17123.1;-189
17130.8;-206
17138.5;-242
17146.2;-219
17153.8;-223
17161.5;-222
17169.2;-191
17176.9;-221
17184.6;-220
17192.3;-217
17200.0;-205
17207.7;-223
17215.4;-250
17223.1;-210
17230.8;-191
17238.5;-223
17246.2;-229
17253.8;-193
17261.5;-201
17269.2;-210
17276.9;-227
17284.6;-209
17292.3;-187
17300.0;-206
17307.7;-254
17315.4;-246
17323.1;-204
17330.8;-162
17338.5;-192
17346.2;-267
17353.8;-244
17361.5;-193
17369.2;-160
17376.9;-197
17384.6;-252
17392.3;-196
17400.0;-210
17407.7;-252
17415.4;-232
17423.1;-182
17430.8;-143
17438.5;-216
17446.2;-283
17453.8;-219
17461.5;-193
17469.2;-260
17476.9;-305
17484.6;-232
17492.3;-195
17500.0;-233
17507.7;-267
17515.4;-199
17523.1;-158
17530.8;-204
17538.5;-225
17546.2;-233
17553.8;-207
17561.5;-183
17569.2;-239
17576.9;-239
17584.6;-169
17592.3;-156
17600.0;-143
17607.7;-146
17615.4;-182
17623.1;-157
17630.8;-156
17638.5;-219
17646.2;-221
17653.8;-191
17661.5;-181
17669.2;-217
17676.9;-235
17684.6;-214
17692.3;-236
17700.0;-254
17707.7;-255
17715.4;-225
17723.1;-236
17730.8;-212
17738.5;-226
17746.2;-282
17753.8;-236
17761.5;-204
17769.2;-264
17776.9;-179
17784.6;-52
17792.3;133
17800.0;240
17807.7;-193
17815.4;-545
17823.1;-478
17830.8;-444
17838.5;-478
17846.2;-509
17853.8;-432
17861.5;-396
17869.2;-450
17876.9;-458
17884.6;-392
17892.3;-326
17900.0;-235
17907.7;-215
17915.4;-248
17923.1;-190
17930.8;-254
17938.5;-280
17946.2;-255
17953.8;-273
17961.5;-258
17969.2;-244
17976.9;-228
17984.6;-211
17992.3;-198
18000.0;-213
18007.7;-158
18015.4;-179
18023.1;-252
18030.8;-158
18038.5;-139
18046.2;-180
18053.8;-134
18061.5;-88
18069.2;-103
18076.9;-71
18084.6;-73
18092.3;-60
18100.0;-67
18107.7;-80
18115.4;-40
18123.1;-57
18130.8;-36
18138.5;-69
18146.2;-105
18153.8;-127
18161.5;-156
18169.2;-160
18176.9;-185
18184.6;-209
18192.3;-237
18200.0;-292
18207.7;-358
18215.4;-298
18223.1;-252
18230.8;-251
18238.5;-269
18246.2;-265
18253.8;-218
18261.5;-223
18269.2;-243
18276.9;-275
18284.6;-246
18292.3;-206
18300.0;-235
18307.7;-262
18315.4;-215
18323.1;-207
18330.8;-239
18338.5;-216
18346.2;-194
18353.8;-252
18361.5;-240
18369.2;-179
18376.9;-267
18384.6;-295
18392.3;-239
18400.0;-221
18407.7;-260
18415.4;-239
18423.1;-204
18430.8;-190
18438.5;-231
18446.2;-212
18453.8;35
18461.5;166
18469.2;-106
18476.9;-461
18484.6;-481
18492.3;-398
18500.0;-365
18507.7;-412
18515.4;-477
18523.1;-453
18530.8;-422
18538.5;-407
18546.2;-399
18553.8;-323
18561.5;-204
18569.2;-145
18576.9;-231
18584.6;-275
18592.3;-210
18600.0;-234
18607.7;-261
18615.4;-241
18623.1;-230
18630.8;-191
18638.5;-171
18646.2;-209
18653.8;-182
18661.5;-157
18669.2;-179
18676.9;-136
18684.6;-105
18692.3;-152
18700.0;-141
18707.7;-96
18715.4;-57
18723.1;-1
18730.8;26
18738.5;48
18746.2;-21
18753.8;-50
18761.5;32
18769.2;49
18776.9;-49
18784.6;-57
18792.3;-35
18800.0;-121
18807.7;-212
18815.4;-235
18823.1;-184
18830.8;-171
18838.5;-213
18846.2;-232
18853.8;-214
18861.5;-210
18869.2;-216
18876.9;-249
18884.6;-234
18892.3;-210
18900.0;-193
18907.7;-211
18915.4;-201
18923.1;-207
18930.8;-274
18938.5;-277
18946.2;-248
18953.8;-247
18961.5;-234
18969.2;-235
18976.9;-207
18984.6;-194
18992.3;-169
19000.0;-178
19007.7;-221
19015.4;-234
19023.1;-215
19030.8;-175
19038.5;-177
19046.2;-198
19053.8;-242
19061.5;-230
19069.2;-215
19076.9;-233
19084.6;-219
19092.3;-199
19100.0;-191
19107.7;-198
19115.4;-208
19123.1;-186
19130.8;-157
19138.5;-169
19146.2;-174
19153.8;-127
19161.5;-115
19169.2;-98
19176.9;119
19184.6;393
19192.3;193
19200.0;-401
19207.7;-566
19215.4;-447
19223.1;-382
19230.8;-411
19238.5;-351
19246.2;-284
19253.8;-359
19261.5;-388
19269.2;-315
19276.9;-264
19284.6;-225
19292.3;-189
19300.0;-190
19307.7;-168
19315.4;-194
19323.1;-235
19330.8;-170
19338.5;-143
19346.2;-164
19353.8;-182
19361.5;-157
19369.2;-114
19376.9;-158
19384.6;-158
19392.3;-124
19400.0;-90
19407.7;-134
19415.4;-140
19423.1;-19
19430.8;-15
19438.5;-16
19446.2;33
19453.8;13
19461.5;14
19469.2;49
19476.9;38
19484.6;21
19492.3;12
19500.0;10
19507.7;10
19515.4;-78
19523.1;-163
19530.8;-165
19538.5;-154
19546.2;-164
19553.8;-182
19561.5;-177
19569.2;-183
19576.9;-192
19584.6;-165
19592.3;-203
19600.0;-237
19607.7;-217
19615.4;-240
19623.1;-253
19630.8;-235
19638.5;-207
19646.2;-203
19653.8;-215
19661.5;-233
19669.2;-211
19676.9;-152
19684.6;-157
19692.3;-200
19700.0;-193
19707.7;-177
19715.4;-184
19723.1;-238
19730.8;-257
19738.5;-173
19746.2;-162
19753.8;-233
19761.5;-234
19769.2;-224
19776.9;-211
19784.6;-189
19792.3;-188
19800.0;-212
19807.7;-181
19815.4;-164
19823.1;-248
19830.8;-238
19838.5;-205
19846.2;-189
19853.8;-143
19861.5;-80
19869.2;125
19876.9;433
19884.6;475
19892.3;-78
19900.0;-519
19907.7;-514
19915.4;-461
19923.1;-425
19930.8;-471
19938.5;-431
19946.2;-344
19953.8;-367
19961.5;-394
19969.2;-405
19976.9;-377
19984.6;-285
19992.3;-210
20000.0;-212
20007.7;-190
20015.4;-225
20023.1;-257
20030.8;-208
20038.5;-181
20046.2;-226
20053.8;-270
20061.5;-239
20069.2;-209
20076.9;-211
20084.6;-219
20092.3;-169
20100.0;-124
20107.7;-152
20115.4;-159
20123.1;-117
20130.8;-75
20138.5;-42
20146.2;-25
20153.8;9
20161.5;15
20169.2;-3
20176.9;6
20184.6;33
20192.3;42
20200.0;-10
20207.7;-43
20215.4;-71
20223.1;-113
20230.8;-142
20238.5;-154
20246.2;-166
20253.8;-190
20261.5;-161
20269.2;-179
20276.9;-228
20284.6;-226
20292.3;-247
20300.0;-249
20307.7;-268
20315.4;-298
20323.1;-255
20330.8;-239
20338.5;-255
20346.2;-279
20353.8;-292
20361.5;-258
20369.2;-271
20376.9;-273
20384.6;-227
20392.3;-213
20400.0;-241
20407.7;-227
20415.4;-224
20423.1;-224
20430.8;-228
20438.5;-253
20446.2;-251
20453.8;-194
20461.5;-227
20469.2;-274
20476.9;-252
20484.6;-234
20492.3;-220
20500.0;-238
20507.7;-258
20515.4;-272
20523.1;-264
20530.8;-233
20538.5;-210
20546.2;-259
20553.8;-266
20561.5;-200
20569.2;-163
20576.9;-158
20584.6;-124
20592.3;85
20600.0;375
20607.7;471
20615.4;-42
20623.1;-570
20630.8;-605
20638.5;-461
20646.2;-437
20653.8;-517
20661.5;-436
20669.2;-345
20676.9;-426
20684.6;-466
20692.3;-425
20700.0;-364
20707.7;-253
20715.4;-154
20723.1;-205
20730.8;-290
20738.5;-270
20746.2;-249
20753.8;-224
20761.5;-155
20769.2;-193
20776.9;-272
20784.6;-274
20792.3;-241
20800.0;-197
20807.7;-176
20815.4;-193
20823.1;-201
20830.8;-114
20838.5;-109
20846.2;-147
20853.8;-113
20861.5;-16
20869.2;-2
20876.9;-11
20884.6;-5
20892.3;19
20900.0;34
20907.7;50
20915.4;27
20923.1;-24
20930.8;-37
20938.5;-68
20946.2;-115
20953.8;-146
20961.5;-192
20969.2;-168
20976.9;-194
20984.6;-223
20992.3;-222
21000.0;-221
21007.7;-258
21015.4;-310
21023.1;-225
21030.8;-221
21038.5;-317
21046.2;-344
21053.8;-294
21061.5;-244
21069.2;-263
21076.9;-359
21084.6;-351
21092.3;-297
21100.0;-253
21107.7;-246
21115.4;-261
21123.1;-239
21130.8;-247
21138.5;-234
21146.2;-215
21153.8;-203
21161.5;-305
21169.2;-334
21176.9;-266
21184.6;-221
21192.3;-190
21200.0;-179
21207.7;-248
21215.4;-334
21223.1;-283
21230.8;-198
21238.5;-190
21246.2;-213
21253.8;-247
21261.5;-277
21269.2;-275
21276.9;-237
21284.6;-229
21292.3;-196
21300.0;-159
21307.7;-132
21315.4;47
21323.1;343
21330.8;514
21338.5;108
21346.2;-480
21353.8;-633
21361.5;-536
21369.2;-466
21376.9;-495
21384.6;-475
21392.3;-380
21400.0;-381
21407.7;-406
21415.4;-433
21423.1;-381
21430.8;-247
21438.5;-214
21446.2;-238
21453.8;-244
21461.5;-251
21469.2;-225
21476.9;-214
21484.6;-234
21492.3;-241
21500.0;-226
21507.7;-215
21515.4;-214
21523.1;-167
21530.8;-149
21538.5;-167
21546.2;-174
21553.8;-137
21561.5;-108
21569.2;-85
21576.9;-39
21584.6;-12
21592.3;23
21600.0;33
21607.7;37
21615.4;-2
21623.1;16
21630.8;40
21638.5;-26
21646.2;-69
21653.8;-117
21661.5;-141
21669.2;-132
21676.9;-189
21684.6;-211
21692.3;-223
21700.0;-257
21707.7;-262
21715.4;-270
21723.1;-231
21730.8;-192
21738.5;-289
21746.2;-337
21753.8;-297
21761.5;-272
21769.2;-319
21776.9;-340
21784.6;-325
21792.3;-264
21800.0;-278
21807.7;-347
21815.4;-323
21823.1;-239
21830.8;-206
21838.5;-256
21846.2;-295
21853.8;-273
21861.5;-261
21869.2;-272
21876.9;-261
21884.6;-243
21892.3;-259
21900.0;-273
21907.7;-300
21915.4;-297
21923.1;-247
21930.8;-237
21938.5;-243
21946.2;-232
21953.8;-259
21961.5;-290
21969.2;-247
21976.9;-224
21984.6;-246
21992.3;-194
22000.0;-141
22007.7;-20
22015.4;247
22023.1;464
22030.8;54
22038.5;-571
22046.2;-628
22053.8;-539
22061.5;-526
22069.2;-508
22076.9;-435
22084.6;-367
22092.3;-347
22100.0;-444
22107.7;-522
22115.4;-430
22123.1;-270
22130.8;-210
22138.5;-247
22146.2;-207
22153.8;-184
22161.5;-310
22169.2;-327
22176.9;-243
22184.6;-212
22192.3;-178
22200.0;-219
22207.7;-299
22215.4;-280
22223.1;-219
22230.8;-184
22238.5;-178
22246.2;-167
22253.8;-155
22261.5;-121
22269.2;-77
22276.9;-48
22284.6;-18
22292.3;33
22300.0;48
22307.7;11
22315.4;-67
22323.1;-41
22330.8;-3
22338.5;-23
22346.2;-64
22353.8;-120
22361.5;-139
22369.2;-174
22376.9;-232
22384.6;-219
22392.3;-212
22400.0;-225
22407.7;-236
22415.4;-235
22423.1;-281
22430.8;-323
22438.5;-307
22446.2;-298
22453.8;-310
22461.5;-306
22469.2;-331
22476.9;-336
22484.6;-320
22492.3;-313
22500.0;-278
22507.7;-263
22515.4;-269
22523.1;-270
22530.8;-240
22538.5;-248
22546.2;-269
22553.8;-245
22561.5;-257
22569.2;-272
22576.9;-265
22584.6;-229
22592.3;-210
22600.0;-235
22607.7;-255
22615.4;-277
22623.1;-277
22630.8;-246
22638.5;-229
22646.2;-219
22653.8;-253
22661.5;-237
22669.2;-194
22676.9;-189
22684.6;-224
22692.3;-195
22700.0;-59
22707.7;43
22715.4;239
22723.1;453
22730.8;37
22738.5;-524
22746.2;-604
22753.8;-490
22761.5;-450
22769.2;-483
22776.9;-421
22784.6;-343
22792.3;-357
22800.0;-394
22807.7;-422
22815.4;-326
22823.1;-239
22830.8;-220
22838.5;-213
22846.2;-217
22853.8;-232
22861.5;-261
22869.2;-248
22876.9;-209
22884.6;-249
22892.3;-253
22900.0;-170
22907.7;-198
22915.4;-271
22923.1;-203
22930.8;-146
22938.5;-115
22946.2;-84
22953.8;-99
22961.5;-110
22969.2;-77
22976.9;28
22984.6;38
22992.3;-33
23000.0;34
23007.7;51
23015.4;23
23023.1;45
23030.8;-32
23038.5;-92
23046.2;-103
23053.8;-107
23061.5;-96
23069.2;-150
23076.9;-264
23084.6;-300
23092.3;-245
23100.0;-197
23107.7;-194
23115.4;-237
23123.1;-306
23130.8;-305
23138.5;-230
23146.2;-239
23153.8;-250
23161.5;-260
23169.2;-271
23176.9;-223
23184.6;-209
23192.3;-249
23200.0;-238
23207.7;-224
23215.4;-254
23223.1;-264
23230.8;-231
23238.5;-240
23246.2;-237
23253.8;-222
23261.5;-239
23269.2;-233
23276.9;-243
23284.6;-280
23292.3;-242
23300.0;-234
23307.7;-259
23315.4;-260
23323.1;-275
23330.8;-259
23338.5;-233
23346.2;-243
23353.8;-266
23361.5;-258
23369.2;-229
23376.9;-252
23384.6;-265
23392.3;-264
23400.0;-269
23407.7;-235
23415.4;-227
23423.1;-214
23430.8;-222
23438.5;-299
23446.2;-302
23453.8;-283
23461.5;-233
23469.2;-204
23476.9;-228
23484.6;-290
23492.3;-304
23500.0;-231
23507.7;-191
23515.4;-218
23523.1;-292
23530.8;-297
23538.5;-260
23546.2;-243
23553.8;-188
23561.5;-189
23569.2;-285
23576.9;-262
23584.6;-247
23592.3;-218
23600.0;-221
23607.7;-268
23615.4;-252
23623.1;-210
23630.8;-219
23638.5;-242
23646.2;-256
23653.8;-227
23661.5;-226
23669.2;-264
23676.9;-262
23684.6;-257
23692.3;-238
23700.0;-228
23707.7;-238
23715.4;-244
23723.1;-229
23730.8;-230
23738.5;-249
23746.2;-256
23753.8;-251
23761.5;-220
23769.2;-229
23776.9;-255
23784.6;-263
23792.3;-242
23800.0;-234
23807.7;-248
23815.4;-245
23823.1;-219
23830.8;-224
23838.5;-244
23846.2;-253
23853.8;-209
23861.5;-195
23869.2;-232
23876.9;-256
23884.6;-256
23892.3;-237
23900.0;-203
23907.7;-218
23915.4;-232
23923.1;-228
23930.8;-237
23938.5;-212
23946.2;-216
23953.8;-235
23961.5;-228
23969.2;-223
23976.9;-209
23984.6;-177
23992.3;-206
24000.0;-255
24007.7;-249
24015.4;-230
24023.1;-213
24030.8;-201
24038.5;-218
24046.2;-269
24053.8;-248
24061.5;-227
24069.2;-222
24076.9;-176
24084.6;-214
24092.3;-270
24100.0;-232
24107.7;-203
24115.4;-212
24123.1;-204
24130.8;-215
24138.5;-221
24146.2;-219
24153.8;-221
24161.5;-192
24169.2;-186
24176.9;-221
24184.6;-237
24192.3;-227
24200.0;-253
24207.7;-228
24215.4;-189
24223.1;-201
24230.8;-211
24238.5;-201
24246.2;-238
24253.8;-227
24261.5;-194
24269.2;-173
24276.9;-218
24284.6;-243
24292.3;-230
24300.0;-228
24307.7;-204
24315.4;-212
24323.1;-216
24330.8;-215
24338.5;-216
24346.2;-211
24353.8;-222
24361.5;-205
24369.2;-197
24376.9;-198
24384.6;-175
24392.3;-178
24400.0;-214
24407.7;-160
24415.4;-121
24423.1;-162
24430.8;-158
24438.5;-132
24446.2;-162
24453.8;-174
24461.5;-150
24469.2;-137
24476.9;-190
24484.6;-225
24492.3;-189
24500.0;-184
24507.7;-260
24515.4;-290
24523.1;-243
24530.8;-212
24538.5;-207
24546.2;-242
24553.8;-265
24561.5;-252
24569.2;-219
24576.9;-199
24584.6;-200
24592.3;-245
24600.0;-199
24607.7;-86
24615.4;74
24623.1;326
24630.8;440
24638.5;-61
24646.2;-561
24653.8;-553
24661.5;-481
24669.2;-467
24676.9;-491
24684.6;-488
24692.3;-408
24700.0;-420
24707.7;-453
24715.4;-401
24723.1;-322
24730.8;-228
24738.5;-217
24746.2;-220
24753.8;-237
24761.5;-257
24769.2;-218
24776.9;-228
24784.6;-269
24792.3;-226
24800.0;-185
24807.7;-203
24815.4;-229
24823.1;-208
24830.8;-196
24838.5;-189
24846.2;-158
24853.8;-146
24861.5;-150
24869.2;-156
24876.9;-168
24884.6;-113
24892.3;-53
24900.0;-50
24907.7;-38
24915.4;-26
24923.1;-8
24930.8;13
24938.5;11
24946.2;20
24953.8;-3
24961.5;-14
24969.2;-32
24976.9;-48
24984.6;-104
24992.3;-118
25000.0;-95
25007.7;-140
25015.4;-193
25023.1;-199
25030.8;-186
25038.5;-195
25046.2;-200
25053.8;-188
25061.5;-188
25069.2;-210
25076.9;-184
25084.6;-205
25092.3;-230
25100.0;-195
25107.7;-189
25115.4;-205
25123.1;-195
25130.8;-176
25138.5;-169
25146.2;-175
25153.8;-189
25161.5;-206
25169.2;-163
25176.9;-164
25184.6;-231
25192.3;-178
25200.0;-171
25207.7;-222
25215.4;-217
25223.1;-196
25230.8;-194
25238.5;-197
25246.2;-223
25253.8;-225
25261.5;-202
25269.2;-220
25276.9;-208
25284.6;-226
25292.3;-257
25300.0;-237
25307.7;-203
25315.4;-208
25323.1;-217
25330.8;-230
25338.5;-196
25346.2;-207
25353.8;-247
25361.5;-231
25369.2;-227
25376.9;-202
25384.6;-199
25392.3;-234
25400.0;-241
25407.7;-212
25415.4;-202
25423.1;-227
25430.8;-239
25438.5;-234
25446.2;-238
25453.8;-200
25461.5;-191
25469.2;-242
25476.9;-260
25484.6;-235
25492.3;-223
25500.0;-164
25507.7;-173
25515.4;-266
25523.1;-272
25530.8;-231
25538.5;-222
25546.2;-238
25553.8;-215
25561.5;-155
25569.2;-170
25576.9;-280
25584.6;-296
25592.3;-214
25600.0;-178
25607.7;-206
25615.4;-267
25623.1;-248
25630.8;-186
25638.5;-218
25646.2;-259
25653.8;-242
25661.5;-205
25669.2;-210
25676.9;-261
25684.6;-246
25692.3;-212
25700.0;-187
25707.7;-224
25715.4;-290
25723.1;-225
25730.8;-195
25738.5;-199
25746.2;-231
25753.8;-245
25761.5;-257
25769.2;-259
25776.9;-231
25784.6;-235
25792.3;-208
25800.0;-184
25807.7;-239
25815.4;-281
25823.1;-238
25830.8;-189
25838.5;-214
25846.2;-260
25853.8;-238
25861.5;-210
25869.2;-229
25876.9;-234
25884.6;-227
25892.3;-229
25900.0;-223
25907.7;-247
25915.4;-235
25923.1;-223
25930.8;-211
25938.5;-214
25946.2;-241
25953.8;-240
25961.5;-207
25969.2;-240
25976.9;-266
25984.6;-240
25992.3;-233
26000.0;-221
26007.7;-223
26015.4;-243
26023.1;-239
26030.8;-248
26038.5;-215
26046.2;-203
26053.8;-246
26061.5;-218
26069.2;-220
26076.9;-247
26084.6;-235
26092.3;-208
26100.0;-208
26107.7;-226
26115.4;-222
26123.1;-217
26130.8;-226
26138.5;-248
26146.2;-247
26153.8;-207
26161.5;-202
26169.2;-245
26176.9;-251
26184.6;-220
26192.3;-198
26200.0;-207
26207.7;-250
26215.4;-246
26223.1;-238
26230.8;-221
26238.5;-184
26246.2;-195
26253.8;-222
26261.5;-235
26269.2;-213
26276.9;-253
26284.6;-221
26292.3;-189
26300.0;-208
26307.7;-225
26315.4;-219
26323.1;-208
26330.8;-216
26338.5;-207
26346.2;-196
26353.8;-195
26361.5;-186
26369.2;-198
26376.9;-224
26384.6;-233
26392.3;-194
26400.0;-197
26407.7;-206
26415.4;-214
26423.1;-224
26430.8;-178
26438.5;-168
26446.2;-204
26453.8;-214
26461.5;-197
26469.2;-189
26476.9;-184
26484.6;-179
26492.3;-173
26500.0;-173
26507.7;-196
26515.4;-227
26523.1;-172
26530.8;-153
26538.5;-196
26546.2;-181
26553.8;-188
26561.5;-215
26569.2;-194
26576.9;-192
26584.6;-199
26592.3;-221
26600.0;-178
26607.7;-160
26615.4;-201
26623.1;-203
26630.8;-194
26638.5;-186
26646.2;-177
26653.8;-165
26661.5;-176
26669.2;-209
26676.9;-211
26684.6;-211
26692.3;-190
26700.0;-159
26707.7;-168
26715.4;-186
26723.1;-206
26730.8;-203
26738.5;-195
26746.2;-201
26753.8;-194
26761.5;-194
26769.2;-202
26776.9;-215
26784.6;-185
26792.3;-165
26800.0;-208
26807.7;-198
26815.4;-160
26823.1;-143
26830.8;-208
26838.5;-203
26846.2;-176
26853.8;-196
26861.5;-193
26869.2;-174
26876.9;-180
26884.6;-207
26892.3;-194
26900.0;-167
26907.7;-175
26915.4;-226
26923.1;-216
26930.8;-178
26938.5;-211
26946.2;-238
26953.8;-209
26961.5;-168
26969.2;-172
26976.9;-219
26984.6;-223
26992.3;-190
27000.0;-167
27007.7;-146
27015.4;-204
27023.1;-212
27030.8;-201
27038.5;-203
27046.2;-162
27053.8;-147
27061.5;-139
27069.2;-108
27076.9;-91
27084.6;-118
27092.3;-132
27100.0;-126
27107.7;-142
27115.4;-157
27123.1;-165
27130.8;-172
27138.5;-160
27146.2;-198
27153.8;-225
27161.5;-214
27169.2;-185
27176.9;-217
27184.6;-227
27192.3;-205
27200.0;-184
27207.7;-205
27215.4;-223
27223.1;-211
27230.8;-141
27238.5;-79
27246.2;-98
27253.8;3
27261.5;270
27269.2;233
27276.9;-288
27284.6;-501
27292.3;-477
27300.0;-407
27307.7;-415
27315.4;-505
27323.1;-403
27330.8;-370
27338.5;-421
27346.2;-434
27353.8;-305
27361.5;-197
27369.2;-235
27376.9;-264
27384.6;-222
27392.3;-197
27400.0;-238
27407.7;-252
27415.4;-233
27423.1;-220
27430.8;-192
27438.5;-185
27446.2;-221
27453.8;-203
27461.5;-250
27469.2;-236
27476.9;-179
27484.6;-165
27492.3;-168
27500.0;-170
27507.7;-184
27515.4;-180
27523.1;-125
27530.8;-66
27538.5;-71
27546.2;-104
27553.8;-85
27561.5;-61
27569.2;-25
27576.9;-14
27584.6;-60
27592.3;-61
27600.0;-43
27607.7;-96
27615.4;-101
27623.1;-89
27630.8;-95
27638.5;-122
27646.2;-154
27653.8;-184
27661.5;-200
27669.2;-165
27676.9;-178
27684.6;-198
27692.3;-229
27700.0;-217
27707.7;-248
27715.4;-265
27723.1;-198
27730.8;-160
27738.5;-140
27746.2;-174
27753.8;-219
27761.5;-182
27769.2;-177
27776.9;-198
27784.6;-192
27792.3;-135
27800.0;-128
27807.7;-203
27815.4;-220
27823.1;-177
27830.8;-137
27838.5;-138
27846.2;-200
27853.8;-185
27861.5;-178
27869.2;-197
27876.9;-196
27884.6;-228
27892.3;-176
27900.0;-146
27907.7;-203
27915.4;-235
27923.1;-229
27930.8;-218
27938.5;-196
27946.2;-204
27953.8;-208
27961.5;-215
27969.2;-218
27976.9;-202
27984.6;-249
27992.3;-215
28000.0;-204
28007.7;-239
28015.4;-209
28023.1;-168
28030.8;-222
28038.5;-263
28046.2;-235
28053.8;-217
28061.5;-212
28069.2;-219
28076.9;-224
28084.6;-223
28092.3;-214
28100.0;-197
28107.7;-203
28115.4;-249
28123.1;-236
28130.8;-236
28138.5;-237
28146.2;-230
28153.8;-199
28161.5;-143
28169.2;-146
28176.9;-175
28184.6;-180
28192.3;-148
28200.0;-100
28207.7;-122
28215.4;-213
28223.1;-229
28230.8;-140
28238.5;-168
28246.2;-228
28253.8;-222
28261.5;-222
28269.2;-251
28276.9;-289
28284.6;-274
28292.3;-230
28300.0;-206
28307.7;-255
28315.4;-239
28323.1;-218
28330.8;-310
28338.5;-290
28346.2;-229
28353.8;-221
28361.5;-229
28369.2;-161
28376.9;48
28384.6;319
28392.3;300
28400.0;-249
28407.7;-553
28415.4;-525
28423.1;-464
28430.8;-430
28438.5;-442
28446.2;-371
28453.8;-423
28461.5;-456
28469.2;-409
28476.9;-388
28484.6;-371
28492.3;-303
28500.0;-231
28507.7;-238
28515.4;-244
28523.1;-214
28530.8;-221
28538.5;-226
28546.2;-264
28553.8;-253
28561.5;-228
28569.2;-233
28576.9;-226
28584.6;-215
28592.3;-208
28600.0;-186
28607.7;-181
28615.4;-207
28623.1;-166
28630.8;-127
28638.5;-83
28646.2;-107
28653.8;-91
28661.5;-17
28669.2;-35
28676.9;-63
28684.6;-53
28692.3;5
28700.0;45
28707.7;17
28715.4;-26
28723.1;-70
28730.8;-94
28738.5;-85
28746.2;-126
28753.8;-170
28761.5;-177
28769.2;-209
28776.9;-266
28784.6;-287
28792.3;-236
28800.0;-243
28807.7;-291
28815.4;-317
28823.1;-297
28830.8;-279
28838.5;-280
28846.2;-296
28853.8;-242
28861.5;-149
28869.2;-175
28876.9;-314
28884.6;-313
28892.3;-193
28900.0;-190
28907.7;-228
28915.4;-200
28923.1;-200
28930.8;-201
28938.5;-215
28946.2;-217
28953.8;-198
28961.5;-236
28969.2;-261
28976.9;-263
28984.6;-239
28992.3;-192
29000.0;-240
29007.7;-264
29015.4;-251
29023.1;-212
29030.8;-211
29038.5;-247
29046.2;-210
29053.8;-114
29061.5;114
29069.2;311
29076.9;176
29084.6;-364
29092.3;-539
29100.0;-451
29107.7;-440
29115.4;-472
29123.1;-474
29130.8;-368
29138.5;-358
29146.2;-478
29153.8;-501
29161.5;-333
29169.2;-228
29176.9;-227
29184.6;-233
29192.3;-260
29200.0;-291
29207.7;-258
29215.4;-222
29223.1;-233
29230.8;-239
29238.5;-210
29246.2;-241
29253.8;-220
29261.5;-185
29269.2;-212
29276.9;-213
29284.6;-202
29292.3;-184
29300.0;-136
29307.7;-117
29315.4;-105
29323.1;-116
29330.8;-54
29338.5;-22
29346.2;-33
29353.8;-11
29361.5;13
29369.2;6
29376.9;-12
29384.6;-20
29392.3;-79
29400.0;-133
29407.7;-142
29415.4;-144
29423.1;-177
29430.8;-207
29438.5;-230
29446.2;-290
29453.8;-278
29461.5;-259
29469.2;-287
29476.9;-271
29484.6;-242
29492.3;-248
29500.0;-297
29507.7;-280
29515.4;-271
29523.1;-268
29530.8;-216
29538.5;-218
29546.2;-291
29553.8;-335
29561.5;-278
29569.2;-210
29576.9;-204
29584.6;-243
29592.3;-257
29600.0;-215
29607.7;-192
29615.4;-223
29623.1;-280
29630.8;-296
29638.5;-224
29646.2;-210
29653.8;-286
29661.5;-272
29669.2;-239
29676.9;-245
29684.6;-283
29692.3;-270
29700.0;-235
29707.7;-241
29715.4;-240
29723.1;-234
29730.8;-210
29738.5;-216
29746.2;-260
29753.8;-242
29761.5;-181
29769.2;-55
29776.9;208
29784.6;187
29792.3;-336
29800.0;-562
29807.7;-480
29815.4;-444
29823.1;-458
29830.8;-491
29838.5;-419
29846.2;-401
29853.8;-474
29861.5;-460
29869.2;-387
29876.9;-272
29884.6;-248
29892.3;-286
29900.0;-248
29907.7;-239
29915.4;-275
29923.1;-257
29930.8;-225
29938.5;-237
29946.2;-260
29953.8;-226
29961.5;-229
29969.2;-265
29976.9;-242
29984.6;-229
29992.3;-174
30000.0;-190
30007.7;-256
30015.4;-209
30023.1;-137
30030.8;-96
30038.5;-47
30046.2;-151
30053.8;-131
30061.5;-53
30069.2;-99
30076.9;-92
30084.6;-37
30092.3;4
30100.0;-37
30107.7;-68
30115.4;-64
30123.1;-110
30130.8;-123
30138.5;-136
30146.2;-194
30153.8;-211
30161.5;-196
30169.2;-202
30176.9;-258
30184.6;-300
30192.3;-258
30200.0;-199
30207.7;-218
30215.4;-291
30223.1;-300
30230.8;-245
30238.5;-193
30246.2;-232
30253.8;-264
30261.5;-232
30269.2;-222
30276.9;-220
30284.6;-186
30292.3;-198
30300.0;-244
30307.7;-243
30315.4;-207
30323.1;-161
30330.8;-235
30338.5;-284
30346.2;-268
30353.8;-233
30361.5;-217
30369.2;-252
30376.9;-267
30384.6;-276
30392.3;-258
30400.0;-179
30407.7;-234
30415.4;-304
30423.1;-232
30430.8;-265
30438.5;-280
30446.2;-243
30453.8;-227
30461.5;-237
30469.2;-302
30476.9;-284
30484.6;-259
30492.3;-248
30500.0;-233
30507.7;-246
30515.4;-228
30523.1;-263
30530.8;-271
30538.5;-258
30546.2;-274
30553.8;-275
30561.5;-251
30569.2;-284
30576.9;-283
30584.6;-230
30592.3;-225
30600.0;-233
30607.7;-279
30615.4;-290
30623.1;-274
30630.8;-253
30638.5;-242
30646.2;-296
30653.8;-277
30661.5;-261
30669.2;-262
30676.9;-261
30684.6;-274
30692.3;-255
30700.0;-219
30707.7;-256
30715.4;-293
30723.1;-267
30730.8;-200
30738.5;-223
30746.2;-295
30753.8;-245
30761.5;-227
30769.2;-282
30776.9;-293
30784.6;-286
30792.3;-245
30800.0;-229
30807.7;-256
30815.4;-237
30823.1;-273
30830.8;-281
30838.5;-237
30846.2;-305
30853.8;-309
30861.5;-266
30869.2;-261
30876.9;-268
30884.6;-261
30892.3;-254
30900.0;-234
30907.7;-243
30915.4;-267
30923.1;-272
30930.8;-239
30938.5;-206
30946.2;-268
30953.8;-286
30961.5;-249
30969.2;-275
30976.9;-308
30984.6;-276
30992.3;-247
31000.0;-240
31007.7;-246
31015.4;-242
31023.1;-262
31030.8;-237
31038.5;-230
31046.2;-236
31053.8;-252
31061.5;-314
31069.2;-282
31076.9;-246
31084.6;-247
31092.3;-250
31100.0;-235
31107.7;-221
31115.4;-261
31123.1;-258
31130.8;-233
31138.5;-259
31146.2;-263
31153.8;-251
31161.5;-235
31169.2;-193
31176.9;-216
31184.6;-308
31192.3;-289
31200.0;-251
31207.7;-244
31215.4;-242
31223.1;-252
31230.8;-245
31238.5;-222
31246.2;-224
31253.8;-246
31261.5;-230
31269.2;-225
31276.9;-270
31284.6;-252
31292.3;-259
31300.0;-235
31307.7;-227
31315.4;-232
31323.1;-225
31330.8;-235
31338.5;-246
31346.2;-246
31353.8;-226
31361.5;-215
31369.2;-196
31376.9;-208
31384.6;-228
31392.3;-220
31400.0;-235
31407.7;-214
31415.4;-205
31423.1;-185
31430.8;-159
31438.5;-164
31446.2;-149
31453.8;-118
31461.5;-113
31469.2;-150
31476.9;-192
31484.6;-182
31492.3;-185
31500.0;-206
31507.7;-193
31515.4;-191
31523.1;-206
31530.8;-206
31538.5;-244
31546.2;-273
31553.8;-229
31561.5;-177
31569.2;-203
31576.9;-273
31584.6;-245
31592.3;-199
31600.0;-178
31607.7;-168
31615.4;-96
31623.1;162
31630.8;363
31638.5;20
31646.2;-450
31653.8;-481
31661.5;-390
31669.2;-386
31676.9;-443
31684.6;-431
31692.3;-370
31700.0;-357
31707.7;-402
31715.4;-405
31723.1;-320
31730.8;-234
31738.5;-207
31746.2;-202
31753.8;-229
31761.5;-222
31769.2;-201
31776.9;-177
31784.6;-194
31792.3;-219
31800.0;-199
31807.7;-206
31815.4;-196
31823.1;-176
31830.8;-171
31838.5;-162
31846.2;-181
31853.8;-167
31861.5;-107
31869.2;-109
31876.9;-132
31884.6;-75
31892.3;-5
31900.0;-57
31907.7;-80
31915.4;-39
31923.1;7
31930.8;28
31938.5;5
31946.2;-17
31953.8;-11
31961.5;25
31969.2;12
31976.9;-68
31984.6;-112
31992.3;-127
32000.0;-113
32007.7;-155
32015.4;-198
32023.1;-168
32030.8;-189
32038.5;-235
32046.2;-227
32053.8;-223
32061.5;-177
32069.2;-241
32076.9;-235
32084.6;-195
32092.3;-158
32100.0;-131
32107.7;-158
32115.4;-185
32123.1;-166
32130.8;-104
32138.5;-115
32146.2;-157
32153.8;-166
32161.5;-193
32169.2;-227
32176.9;-207
32184.6;-150
32192.3;-136
32200.0;-164
32207.7;-200
32215.4;-188
32223.1;-145
32230.8;-173
32238.5;-208
32246.2;-211
32253.8;-217
32261.5;-167
32269.2;-131
32276.9;-190
32284.6;-103
32292.3;214
32300.0;491
32307.7;388
32315.4;-229
32323.1;-526
32330.8;-420
32338.5;-339
32346.2;-395
32353.8;-455
32361.5;-367
32369.2;-295
32376.9;-328
32384.6;-364
32392.3;-351
32400.0;-257
32407.7;-191
32415.4;-197
32423.1;-209
32430.8;-201
32438.5;-181
32446.2;-213
32453.8;-224
32461.5;-160
32469.2;-172
32476.9;-170
32484.6;-156
32492.3;-123
32500.0;-136
32507.7;-208
32515.4;-124
32523.1;-91
32530.8;-119
32538.5;-71
32546.2;-48
32553.8;-66
32561.5;12
32569.2;42
32576.9;-14
32584.6;25
32592.3;75
32600.0;51
32607.7;45
32615.4;43
32623.1;46
32630.8;27
32638.5;-15
32646.2;-33
32653.8;-101
32661.5;-122
32669.2;-130
32676.9;-192
32684.6;-191
32692.3;-184
32700.0;-218
32707.7;-218
32715.4;-235
32723.1;-242
32730.8;-202
32738.5;-198
32746.2;-226
32753.8;-198
32761.5;-173
32769.2;-226
32776.9;-283
32784.6;-256
32792.3;-223
32800.0;-218
32807.7;-259
32815.4;-246
32823.1;-232
32830.8;-208
32838.5;-165
32846.2;-215
32853.8;-228
32861.5;-176
32869.2;-176
32876.9;-256
32884.6;-241
32892.3;-208
32900.0;-214
32907.7;-213
32915.4;-219
32923.1;-239
32930.8;-233
32938.5;-209
32946.2;-179
32953.8;-197
32961.5;-194
32969.2;-236
32976.9;-287
32984.6;-245
32992.3;-236
33000.0;-217
33007.7;-177
33015.4;-199
33023.1;-191
33030.8;-129
33038.5;105
33046.2;408
33053.8;496
33061.5;-13
33069.2;-511
33076.9;-568
33084.6;-520
33092.3;-432
33100.0;-468
33107.7;-454
33115.4;-363
33123.1;-364
33130.8;-388
33138.5;-419
33146.2;-404
33153.8;-296
33161.5;-200
33169.2;-193
33176.9;-208
33184.6;-245
33192.3;-258
33200.0;-239
33207.7;-233
33215.4;-240
33223.1;-225
33230.8;-194
33238.5;-151
33246.2;-173
33253.8;-229
33261.5;-224
33269.2;-175
33276.9;-145
33284.6;-167
33292.3;-166
33300.0;-102
33307.7;-50
33315.4;-57
33323.1;-31
33330.8;1
33338.5;18
33346.2;13
33353.8;-23
33361.5;6
33369.2;-4
33376.9;-5
33384.6;-15
33392.3;-42
33400.0;-70
33407.7;-173
33415.4;-176
33423.1;-170
33430.8;-160
33438.5;-168
33446.2;-261
33453.8;-260
33461.5;-217
33469.2;-243
33476.9;-305
33484.6;-268
33492.3;-195
33500.0;-210
33507.7;-301
33515.4;-336
33523.1;-285
33530.8;-236
33538.5;-272
33546.2;-275
33553.8;-254
33561.5;-239
33569.2;-200
33576.9;-235
33584.6;-263
33592.3;-224
33600.0;-212
33607.7;-220
33615.4;-237
33623.1;-270
33630.8;-249
33638.5;-221
33646.2;-256
33653.8;-301
33661.5;-258
33669.2;-221
33676.9;-232
33684.6;-259
33692.3;-259
33700.0;-229
33707.7;-264
33715.4;-266
33723.1;-214
33730.8;-197
33738.5;-211
33746.2;-220
33753.8;-189
33761.5;-155
33769.2;63
33776.9;386
33784.6;469
33792.3;-27
33800.0;-547
33807.7;-610
33815.4;-500
33823.1;-446
33830.8;-497
33838.5;-450
33846.2;-425
33853.8;-446
33861.5;-421
33869.2;-401
33876.9;-305
33884.6;-239
33892.3;-216
33900.0;-205
33907.7;-236
33915.4;-309
33923.1;-268
33930.8;-222
33938.5;-234
33946.2;-228
33953.8;-241
33961.5;-236
33969.2;-185
33976.9;-191
33984.6;-192
33992.3;-158
34000.0;-132
34007.7;-98
34015.4;-150
34023.1;-168
34030.8;-79
34038.5;-31
34046.2;-35
34053.8;-22
34061.5;-19
34069.2;6
34076.9;23
34084.6;-3
34092.3;8
34100.0;-3
34107.7;-106
34115.4;-132
34123.1;-142
34130.8;-218
34138.5;-211
34146.2;-186
34153.8;-167
34161.5;-220
34169.2;-309
34176.9;-344
34184.6;-289
34192.3;-231
34200.0;-244
34207.7;-289
34215.4;-297
34223.1;-292
34230.8;-243
34238.5;-239
34246.2;-352
34253.8;-340
34261.5;-244
34269.2;-245
34276.9;-273
34284.6;-247
34292.3;-236
34300.0;-239
34307.7;-215
34315.4;-225
34323.1;-283
34330.8;-257
34338.5;-239
34346.2;-294
34353.8;-316
34361.5;-266
34369.2;-235
34376.9;-262
34384.6;-260
34392.3;-211
34400.0;-222
34407.7;-276
34415.4;-269
34423.1;-274
34430.8;-234
34438.5;-260
34446.2;-307
34453.8;-244
34461.5;-190
34469.2;-173
34476.9;-39
34484.6;261
34492.3;467
34500.0;86
34507.7;-532
34515.4;-684
34523.1;-602
34530.8;-499
34538.5;-479
34546.2;-476
34553.8;-408
34561.5;-395
34569.2;-427
34576.9;-453
34584.6;-367
34592.3;-260
34600.0;-241
34607.7;-291
34615.4;-336
34623.1;-290
34630.8;-255
34638.5;-269
34646.2;-270
34653.8;-233
34661.5;-247
34669.2;-263
34676.9;-259
34684.6;-253
34692.3;-217
34700.0;-200
34707.7;-186
34715.4;-226
34723.1;-200
34730.8;-159
34738.5;-131
34746.2;-112
34753.8;-81
34761.5;-31
34769.2;-20
34776.9;-58
34784.6;-37
34792.3;-13
34800.0;-14
34807.7;-29
34815.4;-73
34823.1;-119
34830.8;-164
34838.5;-170
34846.2;-203
34853.8;-210
34861.5;-234
34869.2;-259
34876.9;-245
34884.6;-265
34892.3;-299
34900.0;-317
34907.7;-307
34915.4;-306
34923.1;-259
34930.8;-246
34938.5;-311
34946.2;-385
34953.8;-373
34961.5;-293
34969.2;-282
34976.9;-335
34984.6;-317
34992.3;-245
35000.0;-217
35007.7;-245
35015.4;-297
35023.1;-277
35030.8;-267
35038.5;-263
35046.2;-282
35053.8;-302
35061.5;-307
35069.2;-265
35076.9;-227
35084.6;-279
35092.3;-320
35100.0;-278
35107.7;-227
35115.4;-278
35123.1;-327
35130.8;-297
35138.5;-271
35146.2;-261
35153.8;-241
35161.5;-241
35169.2;-228
35176.9;-220
35184.6;-154
35192.3;94
35200.0;343
35207.7;68
35215.4;-513
35223.1;-610
35230.8;-483
35238.5;-434
35246.2;-495
35253.8;-511
35261.5;-365
35269.2;-415
35276.9;-506
35284.6;-411
35292.3;-275
35300.0;-243
35307.7;-279
35315.4;-286
35323.1;-272
35330.8;-266
35338.5;-258
35346.2;-277
35353.8;-318
35361.5;-249
35369.2;-174
35376.9;-253
35384.6;-331
35392.3;-268
35400.0;-172
35407.7;-148
35415.4;-202
35423.1;-210
35430.8;-179
35438.5;-119
35446.2;-78
35453.8;-64
35461.5;-92
35469.2;-83
35476.9;-3
35484.6;34
35492.3;33
35500.0;-53
35507.7;-102
35515.4;-87
35523.1;-75
35530.8;-64
35538.5;-125
35546.2;-276
35553.8;-309
35561.5;-254
35569.2;-218
35576.9;-237
35584.6;-209
35592.3;-196
35600.0;-324
35607.7;-395
35615.4;-310
35623.1;-259
35630.8;-229
35638.5;-212
35646.2;-299
35653.8;-381
35661.5;-369
35669.2;-289
35676.9;-255
35684.6;-306
35692.3;-300
35700.0;-249
35707.7;-218
35715.4;-249
35723.1;-294
35730.8;-255
35738.5;-192
35746.2;-230
35753.8;-331
35761.5;-300
35769.2;-222
35776.9;-225
35784.6;-274
35792.3;-252
35800.0;-240
35807.7;-275
35815.4;-289
35823.1;-262
35830.8;-231
35838.5;-224
35846.2;-260
35853.8;-257
35861.5;-243
35869.2;-237
35876.9;-249
35884.6;-237
35892.3;-153
35900.0;34
35907.7;237
35915.4;246
35923.1;-228
35930.8;-591
35938.5;-537
35946.2;-449
35953.8;-486
35961.5;-538
35969.2;-422
35976.9;-353
35984.6;-407
35992.3;-443
36000.0;-383
36007.7;-284
36015.4;-235
36023.1;-219
36030.8;-218
36038.5;-217
36046.2;-216
36053.8;-264
36061.5;-232
36069.2;-212
36076.9;-232
36084.6;-219
36092.3;-183
36100.0;-166
36107.7;-202
36115.4;-204
36123.1;-195
36130.8;-142
36138.5;-90
36146.2;-118
36153.8;-114
36161.5;-53
36169.2;18
36176.9;8
36184.6;-39
36192.3;13
36200.0;80
36207.7;16
36215.4;-45
36223.1;-40
36230.8;-27
36238.5;-66
36246.2;-102
36253.8;-114
36261.5;-192
36269.2;-205
36276.9;-187
36284.6;-218
36292.3;-236
36300.0;-221
36307.7;-247
36315.4;-256
36323.1;-231
36330.8;-231
36338.5;-233
36346.2;-278
36353.8;-272
36361.5;-283
36369.2;-265
36376.9;-277
36384.6;-291
36392.3;-240
36400.0;-227
36407.7;-226
36415.4;-238
36423.1;-209
36430.8;-183
36438.5;-234
36446.2;-233
36453.8;-182
36461.5;-217
36469.2;-309
36476.9;-258
36484.6;-156
36492.3;-175
36500.0;-250
36507.7;-236
36515.4;-183
36523.1;-224
36530.8;-227
36538.5;-168
36546.2;-248
36553.8;-244
36561.5;-184
36569.2;-199
36576.9;-232
36584.6;-221
36592.3;-200
36600.0;-192
36607.7;-148
36615.4;-60
36623.1;137
36630.8;420
36638.5;466
36646.2;-16
36653.8;-478
36661.5;-552
36669.2;-529
36676.9;-447
36684.6;-452
36692.3;-440
36700.0;-346
36707.7;-384
36715.4;-419
36723.1;-349
36730.8;-294
36738.5;-322
36746.2;-317
36753.8;-256
36761.5;-200
36769.2;-236
36776.9;-246
36784.6;-211
36792.3;-240
36800.0;-218
36807.7;-221
36815.4;-234
36823.1;-176
36830.8;-163
36838.5;-196
36846.2;-176
36853.8;-162
36861.5;-145
36869.2;-181
36876.9;-122
36884.6;-55
36892.3;-53
36900.0;3
36907.7;28
36915.4;62
36923.1;52
36930.8;35
36938.5;1
36946.2;-57
36953.8;-60
36961.5;-60
36969.2;-104
36976.9;-144
36984.6;-224
36992.3;-231
37000.0;-180
37007.7;-216
37015.4;-256
37023.1;-280
37030.8;-331
37038.5;-263
37046.2;-232
37053.8;-311
37061.5;-345
37069.2;-291
37076.9;-240
37084.6;-242
37092.3;-336
37100.0;-305
37107.7;-278
37115.4;-275
37123.1;-278
37130.8;-332
37138.5;-258
37146.2;-236
37153.8;-254
37161.5;-273
37169.2;-282
37176.9;-266
37184.6;-268
37192.3;-335
37200.0;-291
37207.7;-210
37215.4;-231
37223.1;-310
37230.8;-340
37238.5;-301
37246.2;-261
37253.8;-265
37261.5;-304
37269.2;-289
37276.9;-242
37284.6;-244
37292.3;-318
37300.0;-305
37307.7;-271
37315.4;-265
37323.1;-261
37330.8;-211
37338.5;-150
37346.2;-91
37353.8;117
37361.5;422
37369.2;224
37376.9;-423
37384.6;-638
37392.3;-569
37400.0;-513
37407.7;-526
37415.4;-551
37423.1;-474
37430.8;-435
37438.5;-457
37446.2;-430
37453.8;-375
37461.5;-314
37469.2;-267
37476.9;-243
37484.6;-267
37492.3;-317
37500.0;-260
37507.7;-336
37515.4;-329
37523.1;-272
37530.8;-277
37538.5;-272
37546.2;-212
37553.8;-195
37561.5;-317
37569.2;-257
37576.9;-180
37584.6;-233
37592.3;-214
37600.0;-138
37607.7;-160
37615.4;-176
37623.1;-79
37630.8;20
37638.5;-4
37646.2;-54
37653.8;-31
37661.5;-6
37669.2;25
37676.9;-70
37684.6;-128
37692.3;-101
37700.0;-123
37707.7;-174
37715.4;-256
37723.1;-266
37730.8;-254
37738.5;-247
37746.2;-313
37753.8;-373
37761.5;-351
37769.2;-332
37776.9;-317
37784.6;-305
37792.3;-324
37800.0;-290
37807.7;-337
37815.4;-376
37823.1;-345
37830.8;-351
37838.5;-393
37846.2;-402
37853.8;-355
37861.5;-327
37869.2;-327
37876.9;-335
37884.6;-355
37892.3;-267
37900.0;-255
37907.7;-343
37915.4;-362
37923.1;-316
37930.8;-332
37938.5;-400
37946.2;-341
37953.8;-289
37961.5;-285
37969.2;-303
37976.9;-311
37984.6;-278
37992.3;-326
38000.0;-326
38007.7;-278
38015.4;-302
38023.1;-335
38030.8;-331
38038.5;-314
38046.2;-292
38053.8;-290
38061.5;-312
38069.2;-289
38076.9;-239
38084.6;-132
38092.3;139
38100.0;491
38107.7;393
38115.4;-351
38123.1;-735
38130.8;-635
38138.5;-537
38146.2;-595
38153.8;-580
38161.5;-443
38169.2;-432
38176.9;-483
38184.6;-486
38192.3;-454
38200.0;-333
38207.7;-228
38215.4;-240
38223.1;-343
38230.8;-352
38238.5;-277
38246.2;-295
38253.8;-309
38261.5;-269
38269.2;-228
38276.9;-278
38284.6;-276
38292.3;-233
38300.0;-264
38307.7;-288
38315.4;-229
38323.1;-180
38330.8;-173
38338.5;-116
38346.2;-126
38353.8;-126
38361.5;-101
38369.2;-45
38376.9;-37
38384.6;-48
38392.3;-9
38400.0;-14
38407.7;-49
38415.4;-44
38423.1;-43
38430.8;-145
38438.5;-172
38446.2;-213
38453.8;-275
38461.5;-217
38469.2;-253
38476.9;-311
38484.6;-233
38492.3;-285
38500.0;-361
38507.7;-329
38515.4;-329
38523.1;-321
38530.8;-297
38538.5;-301
38546.2;-355
38553.8;-350
38561.5;-329
38569.2;-355
38576.9;-372
38584.6;-347
38592.3;-317
38600.0;-310
38607.7;-349
38615.4;-386
38623.1;-339
38630.8;-279
38638.5;-284
38646.2;-300
38653.8;-299
38661.5;-316
38669.2;-341
38676.9;-326
38684.6;-302
38692.3;-309
38700.0;-301
38707.7;-291
38715.4;-372
38723.1;-364
38730.8;-311
38738.5;-275
38746.2;-266
38753.8;-316
38761.5;-309
38769.2;-252
38776.9;-318
38784.6;-375
38792.3;-304
38800.0;-279
38807.7;-292
38815.4;-245
38823.1;-140
38830.8;129
38838.5;442
38846.2;283
38853.8;-409
38861.5;-710
38869.2;-655
38876.9;-596
38884.6;-545
38892.3;-551
38900.0;-452
38907.7;-431
38915.4;-520
38923.1;-503
38930.8;-404
38938.5;-357
38946.2;-330
38953.8;-326
38961.5;-280
38969.2;-245
38976.9;-352
38984.6;-380
38992.3;-300
39000.0;-263
39007.7;-250
39015.4;-183
39023.1;-277
39030.8;-395
39038.5;-306
39046.2;-254
39053.8;-237
39061.5;-177
39069.2;-128
39076.9;-212
39084.6;-258
39092.3;-153
39100.0;-66
39107.7;-28
39115.4;-63
39123.1;-87
39130.8;-50
39138.5;-31
39146.2;-28
39153.8;-49
39161.5;-81
39169.2;-164
39176.9;-263
39184.6;-285
39192.3;-255
39200.0;-218
39207.7;-231
39215.4;-333
39223.1;-323
39230.8;-249
39238.5;-299
39246.2;-347
39253.8;-338
39261.5;-331
39269.2;-317
39276.9;-293
39284.6;-326
39292.3;-340
39300.0;-343
39307.7;-362
39315.4;-319
39323.1;-320
39330.8;-280
39338.5;-263
39346.2;-355
39353.8;-318
39361.5;-248
39369.2;-275
39376.9;-288
39384.6;-304
39392.3;-286
39400.0;-302
39407.7;-342
39415.4;-299
39423.1;-275
39430.8;-265
39438.5;-286
39446.2;-294
39453.8;-267
39461.5;-233
39469.2;-304
39476.9;-341
39484.6;-290
39492.3;-303
39500.0;-328
39507.7;-312
39515.4;-301
39523.1;-281
39530.8;-245
39538.5;-201
39546.2;-113
39553.8;-3
39561.5;283
39569.2;429
39576.9;-145
39584.6;-702
39592.3;-661
39600.0;-516
39607.7;-493
39615.4;-534
39623.1;-449
39630.8;-398
39638.5;-450
39646.2;-437
39653.8;-469
39661.5;-398
39669.2;-248
39676.9;-285
39684.6;-353
39692.3;-313
39700.0;-287
39707.7;-283
39715.4;-280
39723.1;-266
39730.8;-284
39738.5;-258
39746.2;-266
39753.8;-248
39761.5;-226
39769.2;-263
39776.9;-245
39784.6;-215
39792.3;-215
39800.0;-177
39807.7;-122
39815.4;-110
39823.1;-108
39830.8;-90
39838.5;-35
39846.2;-45
39853.8;-22
39861.5;4
39869.2;6
39876.9;-49
39884.6;-88
39892.3;-81
39900.0;-132
39907.7;-202
39915.4;-213
39923.1;-234
39930.8;-212
39938.5;-245
39946.2;-316
39953.8;-291
39961.5;-260
39969.2;-278
39976.9;-295
39984.6;-288
39992.3;-313
40000.0;-333
40007.7;-319
40015.4;-271
40023.1;-253
40030.8;-259
40038.5;-246
40046.2;-286
40053.8;-306
40061.5;-281
40069.2;-260
40076.9;-268
40084.6;-300
40092.3;-259
40100.0;-236
40107.7;-266
40115.4;-347
40123.1;-302
40130.8;-242
40138.5;-260
40146.2;-301
40153.8;-290
40161.5;-295
40169.2;-302
40176.9;-288
40184.6;-302
40192.3;-286
40200.0;-284
40207.7;-280
40215.4;-312
40223.1;-327
40230.8;-269
40238.5;-258
40246.2;-317
40253.8;-293
40261.5;-277
40269.2;-304
40276.9;-316
40284.6;-294
40292.3;-261
40300.0;-289
40307.7;-323
40315.4;-322
40323.1;-262
40330.8;-224
40338.5;-319
40346.2;-345
40353.8;-294
40361.5;-241
40369.2;-188
40376.9;-322
40384.6;-348
40392.3;-277
40400.0;-273
40407.7;-272
40415.4;-234
40423.1;-251
40430.8;-332
40438.5;-322
40446.2;-277
40453.8;-281
40461.5;-224
40469.2;-194
40476.9;-346
40484.6;-344
40492.3;-271
40500.0;-258
40507.7;-274
40515.4;-245
40523.1;-163
40530.8;-221
40538.5;-379
40546.2;-355
40553.8;-305
40561.5;-264
40569.2;-265
40576.9;-267
40584.6;-259
40592.3;-233
40600.0;-233
40607.7;-281
40615.4;-288
40623.1;-247
40630.8;-288
40638.5;-277
40646.2;-287
40653.8;-313
40661.5;-255
40669.2;-264
40676.9;-290
40684.6;-293
40692.3;-295
40700.0;-299
40707.7;-284
40715.4;-232
40723.1;-247
40730.8;-282
40738.5;-261
40746.2;-270
40753.8;-297
40761.5;-267
40769.2;-238
40776.9;-267
40784.6;-290
40792.3;-253
40800.0;-223
40807.7;-233
40815.4;-267
40823.1;-263
40830.8;-243
40838.5;-247
40846.2;-256
40853.8;-278
40861.5;-235
40869.2;-253
40876.9;-276
40884.6;-268
40892.3;-256
40900.0;-234
40907.7;-252
40915.4;-263
40923.1;-236
40930.8;-237
40938.5;-258
40946.2;-266
40953.8;-272
40961.5;-249
40969.2;-244
40976.9;-268
40984.6;-289
40992.3;-238
41000.0;-215
41007.7;-249
41015.4;-298
41023.1;-301
41030.8;-215
41038.5;-220
41046.2;-313
41053.8;-293
41061.5;-230
41069.2;-240
41076.9;-264
41084.6;-281
41092.3;-269
41100.0;-241
41107.7;-228
41115.4;-246
41123.1;-247
41130.8;-261
41138.5;-263
41146.2;-263
41153.8;-274
41161.5;-247
41169.2;-242
41176.9;-290
41184.6;-292
41192.3;-287
41200.0;-243
41207.7;-229
41215.4;-270
41223.1;-265
41230.8;-253
41238.5;-254
41246.2;-275
41253.8;-289
41261.5;-268
41269.2;-262
41276.9;-262
41284.6;-268
41292.3;-290
41300.0;-285
41307.7;-242
41315.4;-226
41323.1;-268
41330.8;-285
41338.5;-225
41346.2;-240
41353.8;-293
41361.5;-304
41369.2;-286
41376.9;-270
41384.6;-267
41392.3;-298
41400.0;-289
41407.7;-279
41415.4;-267
41423.1;-243
41430.8;-265
41438.5;-297
41446.2;-325
41453.8;-289
41461.5;-238
41469.2;-246
41476.9;-278
41484.6;-293
41492.3;-272
41500.0;-230
41507.7;-249
41515.4;-285
41523.1;-266
41530.8;-244
41538.5;-253
41546.2;-269
41553.8;-314
41561.5;-301
41569.2;-239
41576.9;-218
41584.6;-267
41592.3;-281
41600.0;-256
41607.7;-212
41615.4;-255
41623.1;-314
41630.8;-279
41638.5;-249
41646.2;-254
41653.8;-269
41661.5;-241
41669.2;-251
41676.9;-270
41684.6;-258
41692.3;-255
41700.0;-256
41707.7;-247
41715.4;-261
41723.1;-272
41730.8;-270
41738.5;-260
41746.2;-272
41753.8;-305
41761.5;-273
41769.2;-241
41776.9;-259
41784.6;-229
41792.3;-253
41800.0;-319
41807.7;-312
41815.4;-283
41823.1;-263
41830.8;-248
41838.5;-279
41846.2;-297
41853.8;-309
41861.5;-272
41869.2;-240
41876.9;-242
41884.6;-281
41892.3;-301
41900.0;-270
41907.7;-255
41915.4;-287
41923.1;-293
41930.8;-247
41938.5;-244
41946.2;-277
41953.8;-289
41961.5;-248
41969.2;-256
41976.9;-295
41984.6;-269
41992.3;-256
42000.0;-254
42007.7;-269
42015.4;-271
42023.1;-264
42030.8;-230
42038.5;-248
42046.2;-287
42053.8;-292
42061.5;-242
42069.2;-198
42076.9;-237
42084.6;-318
42092.3;-328
42100.0;-273
42107.7;-215
42115.4;-199
42123.1;-174
42130.8;-199
42138.5;-210
42146.2;-197
42153.8;-193
42161.5;-158
42169.2;-174
42176.9;-255
42184.6;-302
42192.3;-246
42200.0;-212
42207.7;-223
42215.4;-290
42223.1;-322
42230.8;-282
42238.5;-259
42246.2;-250
42253.8;-252
42261.5;-274
42269.2;-268
42276.9;-271
42284.6;-316
42292.3;-282
42300.0;-218
42307.7;-201
42315.4;-211
42323.1;-110
42330.8;88
42338.5;260
42346.2;191
42353.8;-325
42361.5;-560
42369.2;-482
42376.9;-516
42384.6;-562
42392.3;-496
42400.0;-418
42407.7;-465
42415.4;-508
42423.1;-448
42430.8;-368
42438.5;-294
42446.2;-267
42453.8;-252
42461.5;-291
42469.2;-303
42476.9;-259
42484.6;-278
42492.3;-293
42500.0;-292
42507.7;-267
42515.4;-269
42523.1;-260
42530.8;-235
42538.5;-251
42546.2;-253
42553.8;-227
42561.5;-243
42569.2;-208
42576.9;-175
42584.6;-193
42592.3;-222
42600.0;-167
42607.7;-100
42615.4;-87
42623.1;-91
42630.8;-105
42638.5;-79
42646.2;-85
42653.8;-84
42661.5;-37
42669.2;-34
42676.9;-133
42684.6;-169
42692.3;-156
42700.0;-150
42707.7;-157
42715.4;-205
42723.1;-224
42730.8;-238
42738.5;-247
42746.2;-252
42753.8;-270
42761.5;-244
42769.2;-201
42776.9;-234
42784.6;-270
42792.3;-244
42800.0;-231
42807.7;-219
42815.4;-240
42823.1;-233
42830.8;-206
42838.5;-243
42846.2;-273
42853.8;-248
42861.5;-222
42869.2;-220
42876.9;-244
42884.6;-270
42892.3;-267
42900.0;-250
42907.7;-247
42915.4;-250
42923.1;-235
42930.8;-202
42938.5;-234
42946.2;-291
42953.8;-285
42961.5;-272
42969.2;-240
42976.9;-270
42984.6;-276
42992.3;-278
43000.0;-249
43007.7;-230
43015.4;-269
43023.1;-281
43030.8;-247
43038.5;-218
43046.2;-259
43053.8;-295
43061.5;-258
43069.2;-253
43076.9;-266
43084.6;-280
43092.3;-283
43100.0;-272
43107.7;-255
43115.4;-228
43123.1;-251
43130.8;-284
43138.5;-224
43146.2;-226
43153.8;-307
43161.5;-281
43169.2;-242
43176.9;-240
43184.6;-209
43192.3;-217
43200.0;-263
43207.7;-243
43215.4;-224
43223.1;-241
43230.8;-219
43238.5;-220
43246.2;-217
43253.8;-231
43261.5;-193
43269.2;-159
43276.9;-194
43284.6;-233
43292.3;-175
43300.0;-178
43307.7;-244
43315.4;-209
43323.1;-221
43330.8;-233
43338.5;-261
43346.2;-302
43353.8;-331
43361.5;-305
43369.2;-279
43376.9;-289
43384.6;-296
43392.3;-323
43400.0;-337
43407.7;-330
43415.4;-297
43423.1;-286
43430.8;-322
43438.5;-339
43446.2;-299
43453.8;-249
43461.5;-108
43469.2;142
43476.9;358
43484.6;165
43492.3;-399
43500.0;-614
43507.7;-569
43515.4;-508
43523.1;-522
43530.8;-488
43538.5;-401
43546.2;-456
43553.8;-510
43561.5;-469
43569.2;-463
43576.9;-429
43584.6;-326
43592.3;-287
43600.0;-288
43607.7;-295
43615.4;-297
43623.1;-286
43630.8;-287
43638.5;-278
43646.2;-263
43653.8;-272
43661.5;-252
43669.2;-259
43676.9;-302
43684.6;-229
43692.3;-170
43700.0;-237
43707.7;-276
43715.4;-248
43723.1;-180
43730.8;-67
43738.5;-101
43746.2;-157
43753.8;-105
43761.5;-62
43769.2;-25
43776.9;-33
43784.6;-84
43792.3;-21
43800.0;-18
43807.7;-186
43815.4;-178
43823.1;-153
43830.8;-173
43838.5;-221
43846.2;-263
43853.8;-296
43861.5;-220
43869.2;-226
43876.9;-374
43884.6;-393
43892.3;-337
43900.0;-309
43907.7;-284
43915.4;-268
43923.1;-361
43930.8;-320
43938.5;-239
43946.2;-230
43953.8;-218
43961.5;-146
43969.2;-213
43976.9;-345
43984.6;-306
43992.3;-196
44000.0;-181
44007.7;-292
44015.4;-317
44023.1;-278
44030.8;-235
44038.5;-238
44046.2;-283
44053.8;-290
44061.5;-250
44069.2;-237
44076.9;-282
44084.6;-297
44092.3;-235
44100.0;-205
44107.7;-257
44115.4;-240
44123.1;-127
44130.8;72
44138.5;358
44146.2;278
44153.8;-337
44161.5;-599
44169.2;-509
44176.9;-498
44184.6;-533
44192.3;-526
44200.0;-367
44207.7;-390
44215.4;-537
44223.1;-472
44230.8;-325
44238.5;-276
44246.2;-298
44253.8;-272
44261.5;-213
44269.2;-250
44276.9;-289
44284.6;-297
44292.3;-259
44300.0;-223
44307.7;-201
44315.4;-235
44323.1;-274
44330.8;-266
44338.5;-212
44346.2;-158
44353.8;-160
44361.5;-207
44369.2;-214
44376.9;-184
44384.6;-161
44392.3;-108
44400.0;-5
44407.7;42
44415.4;-54
44423.1;-81
44430.8;-11
44438.5;27
44446.2;15
44453.8;-32
44461.5;-52
44469.2;-79
44476.9;-125
44484.6;-151
44492.3;-161
44500.0;-211
44507.7;-235
44515.4;-240
44523.1;-243
44530.8;-267
44538.5;-333
44546.2;-290
44553.8;-235
44561.5;-250
44569.2;-284
44576.9;-282
44584.6;-317
44592.3;-281
44600.0;-230
44607.7;-254
44615.4;-316
44623.1;-319
44630.8;-270
44638.5;-261
44646.2;-293
44653.8;-302
44661.5;-247
44669.2;-209
44676.9;-243
44684.6;-311
44692.3;-294
44700.0;-228
44707.7;-226
44715.4;-290
44723.1;-319
44730.8;-257
44738.5;-254
44746.2;-221
44753.8;-220
44761.5;-320
44769.2;-307
44776.9;-278
44784.6;-282
44792.3;-226
44800.0;-190
44807.7;-301
44815.4;-344
44823.1;-281
44830.8;-212
44838.5;-167
44846.2;-107
44853.8;113
44861.5;336
44869.2;111
44876.9;-463
44884.6;-611
44892.3;-504
44900.0;-462
44907.7;-494
44915.4;-484
44923.1;-424
44930.8;-460
44938.5;-485
44946.2;-406
44953.8;-322
44961.5;-283
44969.2;-274
44976.9;-232
44984.6;-237
44992.3;-302
45000.0;-287
45007.7;-256
45015.4;-247
45023.1;-270
45030.8;-253
45038.5;-233
45046.2;-257
45053.8;-248
45061.5;-200
45069.2;-205
45076.9;-177
45084.6;-180
45092.3;-205
45100.0;-160
45107.7;-134
45115.4;-101
45123.1;-91
45130.8;-61
45138.5;-33
45146.2;-41
45153.8;-44
45161.5;-41
45169.2;-45
45176.9;-57
45184.6;-117
45192.3;-157
45200.0;-166
45207.7;-172
45215.4;-195
45223.1;-221
45230.8;-269
45238.5;-291
45246.2;-267
45253.8;-273
45261.5;-264
45269.2;-272
45276.9;-308
45284.6;-308
45292.3;-287
45300.0;-238
45307.7;-270
45315.4;-325
45323.1;-296
45330.8;-262
45338.5;-250
45346.2;-267
45353.8;-287
45361.5;-274
45369.2;-252
45376.9;-233
45384.6;-269
45392.3;-300
45400.0;-311
45407.7;-288
45415.4;-232
45423.1;-202
45430.8;-279
45438.5;-369
45446.2;-378
45453.8;-312
45461.5;-284
45469.2;-280
45476.9;-292
45484.6;-324
45492.3;-302
45500.0;-235
45507.7;-282
45515.4;-366
45523.1;-330
45530.8;-273
45538.5;-237
45546.2;-280
45553.8;-388
45561.5;-333
45569.2;-268
45576.9;-282
45584.6;-271
45592.3;-235
45600.0;-311
45607.7;-364
45615.4;-321
45623.1;-272
45630.8;-250
45638.5;-285
45646.2;-330
45653.8;-327
45661.5;-291
45669.2;-277
45676.9;-284
45684.6;-305
45692.3;-300
45700.0;-247
45707.7;-296
45715.4;-344
45723.1;-302
45730.8;-294
45738.5;-252
45746.2;-258
45753.8;-368
45761.5;-336
45769.2;-250
45776.9;-224
45784.6;-274
45792.3;-352
45800.0;-325
45807.7;-273
45815.4;-303
45823.1;-310
45830.8;-295
45838.5;-288
45846.2;-281
45853.8;-325
45861.5;-309
45869.2;-278
45876.9;-304
45884.6;-293
45892.3;-293
45900.0;-283
45907.7;-265
45915.4;-310
45923.1;-310
45930.8;-283
45938.5;-270
45946.2;-289
45953.8;-321
45961.5;-293
45969.2;-289
45976.9;-292
45984.6;-261
45992.3;-260
46000.0;-272
46007.7;-281
46015.4;-302
46023.1;-336
46030.8;-291
46038.5;-261
46046.2;-307
46053.8;-306
46061.5;-298
46069.2;-276
46076.9;-264
46084.6;-280
46092.3;-315
46100.0;-306
46107.7;-283
46115.4;-272
46123.1;-205
46130.8;-253
46138.5;-352
46146.2;-323
46153.8;-298
46161.5;-277
46169.2;-253
46176.9;-257
46184.6;-234
46192.3;-249
46200.0;-304
46207.7;-299
46215.4;-303
46223.1;-293
46230.8;-253
46238.5;-243
46246.2;-280
46253.8;-289
46261.5;-281
46269.2;-260
46276.9;-267
46284.6;-294
46292.3;-298
46300.0;-251
46307.7;-251
46315.4;-310
46323.1;-305
46330.8;-297
46338.5;-272
46346.2;-266
46353.8;-270
46361.5;-266
46369.2;-269
46376.9;-269
46384.6;-228
46392.3;-227
46400.0;-250
46407.7;-289
46415.4;-307
46423.1;-271
46430.8;-241
46438.5;-273
46446.2;-272
46453.8;-288
46461.5;-287
46469.2;-242
46476.9;-270
46484.6;-275
46492.3;-274
46500.0;-258
46507.7;-247
46515.4;-263
46523.1;-260
46530.8;-237
46538.5;-253
46546.2;-290
46553.8;-254
46561.5;-227
46569.2;-215
46576.9;-189
46584.6;-198
46592.3;-194
46600.0;-163
46607.7;-169
46615.4;-226
46623.1;-243
46630.8;-202
46638.5;-198
46646.2;-275
46653.8;-274
46661.5;-257
46669.2;-279
46676.9;-247
46684.6;-267
46692.3;-285
46700.0;-262
46707.7;-274
46715.4;-285
46723.1;-279
46730.8;-278
46738.5;-263
46746.2;-256
46753.8;-249
46761.5;-156
46769.2;-58
46776.9;88
46784.6;289
46792.3;133
46800.0;-361
46807.7;-569
46815.4;-525
46823.1;-463
46830.8;-479
46838.5;-464
46846.2;-443
46853.8;-447
46861.5;-435
46869.2;-389
46876.9;-313
46884.6;-251
46892.3;-251
46900.0;-294
46907.7;-292
46915.4;-258
46923.1;-262
46930.8;-214
46938.5;-233
46946.2;-292
46953.8;-296
46961.5;-253
46969.2;-192
46976.9;-197
46984.6;-285
46992.3;-277
47000.0;-198
47007.7;-192
47015.4;-157
47023.1;-165
47030.8;-171
47038.5;-146
47046.2;-148
47053.8;-122
47061.5;-41
47069.2;-39
47076.9;-89
47084.6;-129
47092.3;-107
47100.0;-48
47107.7;-53
47115.4;-24
47123.1;-24
47130.8;-140
47138.5;-161
47146.2;-143
47153.8;-175
47161.5;-175
47169.2;-148
47176.9;-219
47184.6;-251
47192.3;-278
47200.0;-309
47207.7;-283
47215.4;-279
47223.1;-268
47230.8;-261
47238.5;-258
47246.2;-236
47253.8;-236
47261.5;-223
47269.2;-209
47276.9;-205
47284.6;-202
47292.3;-228
47300.0;-217
47307.7;-193
47315.4;-209
47323.1;-223
47330.8;-216
47338.5;-202
47346.2;-205
47353.8;-243
47361.5;-223
47369.2;-179
47376.9;-235
47384.6;-276
47392.3;-275
47400.0;-206
47407.7;-178
47415.4;-214
47423.1;-243
47430.8;-206
47438.5;-197
47446.2;-173
47453.8;-12
47461.5;195
47469.2;108
47476.9;-404
47484.6;-523
47492.3;-388
47500.0;-333
47507.7;-410
47515.4;-439
47523.1;-371
47530.8;-374
47538.5;-431
47546.2;-415
47553.8;-333
47561.5;-269
47569.2;-215
47576.9;-209
47584.6;-212
47592.3;-264
47600.0;-253
47607.7;-184
47615.4;-210
47623.1;-246
47630.8;-201
47638.5;-182
47646.2;-220
47653.8;-227
47661.5;-198
47669.2;-173
47676.9;-186
47684.6;-187
47692.3;-199
47700.0;-181
47707.7;-128
47715.4;-143
47723.1;-150
47730.8;-78
47738.5;-55
47746.2;-49
47753.8;-60
47761.5;-42
47769.2;-33
47776.9;-45
47784.6;-44
47792.3;-30
47800.0;-92
47807.7;-180
47815.4;-209
47823.1;-181
47830.8;-156
47838.5;-184
47846.2;-262
47853.8;-268
47861.5;-239
47869.2;-206
47876.9;-218
47884.6;-256
47892.3;-242
47900.0;-220
47907.7;-210
47915.4;-226
47923.1;-265
47930.8;-234
47938.5;-219
47946.2;-227
47953.8;-269
47961.5;-283
47969.2;-232
47976.9;-213
47984.6;-230
47992.3;-178
48000.0;-159
48007.7;-229
48015.4;-262
48023.1;-270
48030.8;-249
48038.5;-228
48046.2;-223
48053.8;-226
48061.5;-229
48069.2;-214
48076.9;-201
48084.6;-210
48092.3;-177
48100.0;-235
48107.7;-262
48115.4;-231
48123.1;-201
48130.8;-201
48138.5;-173
48146.2;-165
48153.8;-181
48161.5;-106
48169.2;-26
48176.9;101
48184.6;289
48192.3;107
48200.0;-364
48207.7;-507
48215.4;-471
48223.1;-371
48230.8;-385
48238.5;-392
48246.2;-277
48253.8;-338
48261.5;-399
48269.2;-324
48276.9;-292
48284.6;-228
48292.3;-164
48300.0;-137
48307.7;-171
48315.4;-224
48323.1;-184
48330.8;-110
48338.5;-155
48346.2;-173
48353.8;-133
48361.5;-165
48369.2;-229
48376.9;-159
48384.6;-143
48392.3;-173
48400.0;-103
48407.7;-87
48415.4;-114
48423.1;-91
48430.8;-21
48438.5;7
48446.2;-25
48453.8;-3
48461.5;34
48469.2;30
48476.9;58
48484.6;44
48492.3;-2
48500.0;27
48507.7;4
48515.4;-71
48523.1;-71
48530.8;-58
48538.5;-111
48546.2;-118
48553.8;-144
48561.5;-190
48569.2;-173
48576.9;-185
48584.6;-220
48592.3;-194
48600.0;-174
48607.7;-176
48615.4;-211
48623.1;-178
48630.8;-154
48638.5;-203
48646.2;-206
48653.8;-185
48661.5;-202
48669.2;-256
48676.9;-230
48684.6;-198
48692.3;-230
48700.0;-195
48707.7;-209
48715.4;-238
48723.1;-207
48730.8;-210
48738.5;-209
48746.2;-229
48753.8;-256
48761.5;-219
48769.2;-180
48776.9;-187
48784.6;-218
48792.3;-213
48800.0;-189
48807.7;-227
48815.4;-228
48823.1;-211
48830.8;-210
48838.5;-202
48846.2;-244
48853.8;-213
48861.5;-184
48869.2;-170
48876.9;-174
48884.6;-206
48892.3;-140
48900.0;12
48907.7;225
48915.4;344
48923.1;-45
48930.8;-463
48938.5;-485
48946.2;-404
48953.8;-422
48961.5;-465
48969.2;-373
48976.9;-316
48984.6;-396
48992.3;-397
49000.0;-365
49007.7;-329
49015.4;-263
49023.1;-234
49030.8;-183
49038.5;-163
49046.2;-208
49053.8;-248
49061.5;-200
49069.2;-178
49076.9;-200
49084.6;-209
49092.3;-183
49100.0;-160
49107.7;-186
49115.4;-193
49123.1;-155
49130.8;-111
49138.5;-93
49146.2;-143
49153.8;-153
49161.5;-110
49169.2;-55
49176.9;-14
49184.6;-16
49192.3;-23
49200.0;-15
49207.7;-16
49215.4;-38
49223.1;-44
49230.8;-26
49238.5;-48
49246.2;-91
49253.8;-152
49261.5;-151
49269.2;-121
49276.9;-199
49284.6;-235
49292.3;-214
49300.0;-234
49307.7;-234
49315.4;-196
49323.1;-225
49330.8;-221
49338.5;-219
49346.2;-213
49353.8;-196
49361.5;-183
49369.2;-166
49376.9;-158
49384.6;-212
49392.3;-225
49400.0;-135
49407.7;-174
49415.4;-255
49423.1;-213
49430.8;-151
49438.5;-206
49446.2;-215
49453.8;-188
49461.5;-216
49469.2;-219
49476.9;-190
49484.6;-224
49492.3;-223
49500.0;-234
49507.7;-238
49515.4;-234
49523.1;-252
49530.8;-234
49538.5;-225
49546.2;-209
49553.8;-197
49561.5;-239
49569.2;-231
49576.9;-241
49584.6;-229
49592.3;-204
49600.0;-215
49607.7;-226
49615.4;-239
49623.1;-264
49630.8;-246
49638.5;-196
49646.2;-198
49653.8;-229
49661.5;-202
49669.2;-199
49676.9;-256
49684.6;-295
49692.3;-210
49700.0;-210
49707.7;-223
49715.4;-226
49723.1;-251
49730.8;-230
49738.5;-236
49746.2;-218
49753.8;-268
49761.5;-266
49769.2;-215
49776.9;-222
49784.6;-234
49792.3;-246
49800.0;-227
49807.7;-214
49815.4;-246
49823.1;-288
49830.8;-242
49838.5;-199
49846.2;-224
49853.8;-231
49861.5;-230
49869.2;-201
49876.9;-203
49884.6;-219
49892.3;-208
49900.0;-218
49907.7;-214
49915.4;-217
49923.1;-226
49930.8;-215
49938.5;-228
49946.2;-236
49953.8;-231
49961.5;-223
49969.2;-189
49976.9;-203
49984.6;-219
49992.3;-189
50000.0;-208
50007.7;-265
50015.4;-223
50023.1;-189
50030.8;-231
50038.5;-248
50046.2;-235
50053.8;-222
50061.5;-216
50069.2;-207
50076.9;-205
50084.6;-218
50092.3;-239
50100.0;-223
50107.7;-225
50115.4;-205
50123.1;-195
50130.8;-223
50138.5;-240
50146.2;-224
50153.8;-209
50161.5;-200
50169.2;-185
50176.9;-210
50184.6;-227
50192.3;-262
50200.0;-226
50207.7;-201
50215.4;-215
50223.1;-232
50230.8;-221
50238.5;-213
50246.2;-239
50253.8;-233
50261.5;-232
50269.2;-207
50276.9;-202
50284.6;-225
50292.3;-228
50300.0;-185
50307.7;-179
50315.4;-243
50323.1;-230
50330.8;-210
50338.5;-191
50346.2;-178
50353.8;-196
50361.5;-256
50369.2;-247
50376.9;-198
50384.6;-194
50392.3;-189
50400.0;-196
50407.7;-222
50415.4;-257
50423.1;-246
50430.8;-170
50438.5;-79
50446.2;-165
50453.8;-351
50461.5;-292
50469.2;-213
50476.9;-216
50484.6;-183
50492.3;-182
50500.0;-202
50507.7;-201
50515.4;-205
50523.1;-209
50530.8;-206
50538.5;-215
50546.2;-232
50553.8;-229
50561.5;-200
50569.2;-218
50576.9;-224
50584.6;-196
50592.3;-224
50600.0;-239
50607.7;-200
50615.4;-201
50623.1;-223
50630.8;-235
50638.5;-188
50646.2;-170
50653.8;-182
50661.5;-184
50669.2;-207
50676.9;-231
50684.6;-186
50692.3;-144
50700.0;-149
50707.7;-136
50715.4;-167
50723.1;-192
50730.8;-151
50738.5;-142
50746.2;-167
50753.8;-160
50761.5;-163
50769.2;-194
50776.9;-202
50784.6;-236
50792.3;-234
50800.0;-212
50807.7;-231
50815.4;-231
50823.1;-248
50830.8;-248
50838.5;-216
50846.2;-216
50853.8;-253
50861.5;-235
50869.2;-190
50876.9;-190
50884.6;-183
50892.3;-95
50900.0;46
50907.7;245
50915.4;151
50923.1;-337
50930.8;-469
50938.5;-427
50946.2;-402
50953.8;-399
50961.5;-454
50969.2;-372
50976.9;-306
50984.6;-372
50992.3;-434
51000.0;-346
51007.7;-272
51015.4;-236
51023.1;-187
51030.8;-173
51038.5;-217
51046.2;-236
51053.8;-228
51061.5;-162
51069.2;-126
51076.9;-210
51084.6;-254
51092.3;-204
51100.0;-158
51107.7;-177
51115.4;-195
51123.1;-159
51130.8;-126
51138.5;-132
51146.2;-119
51153.8;-133
51161.5;-144
51169.2;-79
51176.9;-81
51184.6;-85
51192.3;-50
51200.0;-65
51207.7;-42
51215.4;-8
51223.1;8
51230.8;20
51238.5;12
51246.2;9
51253.8;-21
51261.5;-40
51269.2;-31
51276.9;-41
51284.6;-87
51292.3;-136
51300.0;-111
51307.7;-126
51315.4;-133
51323.1;-151
51330.8;-186
51338.5;-163
51346.2;-165
51353.8;-194
51361.5;-174
51369.2;-134
51376.9;-139
51384.6;-177
51392.3;-143
51400.0;-142
51407.7;-157
51415.4;-155
51423.1;-169
51430.8;-140
51438.5;-140
51446.2;-139
51453.8;-181
51461.5;-178
51469.2;-148
51476.9;-133
51484.6;-135
51492.3;-155
51500.0;-157
51507.7;-184
51515.4;-179
51523.1;-186
51530.8;-171
51538.5;-156
51546.2;-173
51553.8;-205
51561.5;-182
51569.2;-169
51576.9;-184
51584.6;-186
51592.3;-167
51600.0;-164
51607.7;-183
51615.4;-210
51623.1;-192
51630.8;-157
51638.5;-186
51646.2;-172
51653.8;-158
51661.5;-208
51669.2;-211
51676.9;-152
51684.6;-171
51692.3;-214
51700.0;-191
51707.7;-214
51715.4;-216
51723.1;-200
51730.8;-201
51738.5;-167
51746.2;-168
51753.8;-232
51761.5;-190
51769.2;-178
51776.9;-211
51784.6;-213
51792.3;-195
51800.0;-208
51807.7;-192
51815.4;-195
51823.1;-192
51830.8;-153
51838.5;-189
51846.2;-229
51853.8;-196
51861.5;-215
51869.2;-233
51876.9;-199
51884.6;-179
51892.3;-167
51900.0;-157
51907.7;-189
51915.4;-206
51923.1;-207
51930.8;-190
51938.5;-156
51946.2;-165
51953.8;-186
51961.5;-171
51969.2;-146
51976.9;-182
51984.6;-209
51992.3;-178
52000.0;-139
52007.7;-173
52015.4;-196
52023.1;-181
52030.8;-188
52038.5;-155
52046.2;-117
52053.8;-113
52061.5;-116
52069.2;-146
52076.9;-115
52084.6;-90
52092.3;-121
52100.0;-137
52107.7;-130
52115.4;-159
52123.1;-188
52130.8;-195
52138.5;-163
52146.2;-152
52153.8;-184
52161.5;-217
52169.2;-196
52176.9;-213
52184.6;-279
52192.3;-224
52200.0;-164
52207.7;-188
52215.4;-215
52223.1;-211
52230.8;-155
52238.5;-152
52246.2;-140
52253.8;-76
52261.5;53
52269.2;250
52276.9;133
52284.6;-381
52292.3;-533
52300.0;-405
52307.7;-333
52315.4;-355
52323.1;-473
52330.8;-361
52338.5;-298
52346.2;-359
52353.8;-391
52361.5;-320
52369.2;-218
52376.9;-171
52384.6;-210
52392.3;-202
52400.0;-160
52407.7;-149
52415.4;-151
52423.1;-181
52430.8;-187
52438.5;-186
52446.2;-185
52453.8;-146
52461.5;-141
52469.2;-140
52476.9;-144
52484.6;-125
52492.3;-103
52500.0;-95
52507.7;-82
52515.4;-97
52523.1;-44
52530.8;-11
52538.5;-35
52546.2;-10
52553.8;36
52561.5;51
52569.2;40
52576.9;9
52584.6;25
52592.3;35
52600.0;26
52607.7;-13
52615.4;-70
52623.1;-65
52630.8;-41
52638.5;-103
52646.2;-176
52653.8;-181
52661.5;-147
52669.2;-175
52676.9;-218
52684.6;-247
52692.3;-221
52700.0;-203
52707.7;-172
52715.4;-180
52723.1;-183
52730.8;-121
52738.5;-87
52746.2;-138
52753.8;-189
52761.5;-111
52769.2;-79
52776.9;-191
52784.6;-171
52792.3;-102
52800.0;-118
52807.7;-152
52815.4;-104
52823.1;-122
52830.8;-98
52838.5;-106
52846.2;-165
52853.8;-131
52861.5;-134
52869.2;-114
52876.9;-139
52884.6;-180
52892.3;-125
52900.0;-56
52907.7;-68
52915.4;-97
52923.1;116
52930.8;373
52938.5;199
52946.2;-314
52953.8;-435
52961.5;-327
52969.2;-252
52976.9;-300
52984.6;-300
52992.3;-286
53000.0;-323
53007.7;-314
53015.4;-280
53023.1;-271
53030.8;-214
53038.5;-124
53046.2;-122
53053.8;-136
53061.5;-124
53069.2;-91
53076.9;-117
53084.6;-128
53092.3;-134
53100.0;-120
53107.7;-83
53115.4;-71
53123.1;-83
53130.8;-95
53138.5;-55
53146.2;-59
53153.8;-36
53161.5;-23
53169.2;-42
53176.9;-49
53184.6;15
53192.3;84
53200.0;106
53207.7;107
53215.4;85
53223.1;127
53230.8;167
53238.5;131
53246.2;85
53253.8;42
53261.5;21
53269.2;30
53276.9;-42
53284.6;-108
53292.3;-106
53300.0;-95
53307.7;-89
53315.4;-84
53323.1;-167
53330.8;-204
53338.5;-138
53346.2;-132
53353.8;-65
53361.5;-77
53369.2;-264
53376.9;-217
53384.6;-139
53392.3;-131
53400.0;-145
53407.7;-155
53415.4;-105
53423.1;-143
53430.8;-229
53438.5;-214
53446.2;-182
53453.8;-130
53461.5;-114
53469.2;-134
53476.9;-162
53484.6;-164
53492.3;-179
53500.0;-161
53507.7;-127
53515.4;-167
53523.1;-200
53530.8;-102
53538.5;-100
53546.2;-204
53553.8;-217
53561.5;-147
53569.2;-81
53576.9;-119
53584.6;-196
53592.3;-159
53600.0;-125
53607.7;-90
53615.4;-72
53623.1;-57
53630.8;-114
53638.5;-110
53646.2;121
53653.8;380
53661.5;289
53669.2;-246
53676.9;-469
53684.6;-373
53692.3;-290
53700.0;-365
53707.7;-394
53715.4;-285
53723.1;-316
53730.8;-327
53738.5;-297
53746.2;-265
53753.8;-182
53761.5;-137
53769.2;-140
53776.9;-129
53784.6;-135
53792.3;-143
53800.0;-155
53807.7;-159
53815.4;-160
53823.1;-147
53830.8;-91
53838.5;-91
53846.2;-155
53853.8;-153
53861.5;-109
53869.2;-64
53876.9;-69
53884.6;-73
53892.3;-42
53900.0;-26
53907.7;-28
53915.4;29
53923.1;56
53930.8;47
53938.5;38
53946.2;71
53953.8;88
53961.5;104
53969.2;67
53976.9;13
53984.6;-14
53992.3;-28
54000.0;-58
54007.7;-64
54015.4;-87
54023.1;-111
54030.8;-127
54038.5;-152
54046.2;-174
54053.8;-199
54061.5;-117
54069.2;-109
54076.9;-231
54084.6;-245
54092.3;-185
54100.0;-171
54107.7;-173
54115.4;-187
54123.1;-188
54130.8;-148
54138.5;-177
54146.2;-200
54153.8;-184
54161.5;-135
54169.2;-100
54176.9;-130
54184.6;-174
54192.3;-158
54200.0;-140
54207.7;-168
54215.4;-157
54223.1;-155
54230.8;-153
54238.5;-122
54246.2;-145
54253.8;-142
54261.5;-131
54269.2;-170
54276.9;-167
54284.6;-160
54292.3;-128
54300.0;-145
54307.7;-175
54315.4;-173
54323.1;-175
54330.8;-148
54338.5;-100
54346.2;-94
54353.8;-92
54361.5;17
54369.2;240
54376.9;423
54384.6;148
54392.3;-405
54400.0;-498
54407.7;-385
54415.4;-342
54423.1;-392
54430.8;-350
54438.5;-223
54446.2;-318
54453.8;-351
54461.5;-338
54469.2;-284
54476.9;-192
54484.6;-171
54492.3;-152
54500.0;-136
54507.7;-168
54515.4;-175
54523.1;-128
54530.8;-116
54538.5;-147
54546.2;-140
54553.8;-137
54561.5;-167
54569.2;-116
54576.9;-109
54584.6;-146
54592.3;-100
54600.0;-23
54607.7;-26
54615.4;-32
54623.1;-18
54630.8;44
54638.5;93
54646.2;60
54653.8;82
54661.5;91
54669.2;71
54676.9;33
54684.6;38
54692.3;18
54700.0;5
54707.7;-59
54715.4;-73
54723.1;-128
54730.8;-163
54738.5;-140
54746.2;-156
54753.8;-183
54761.5;-168
54769.2;-127
54776.9;-163
54784.6;-247
54792.3;-212
54800.0;-122
54807.7;-144
54815.4;-255
54823.1;-265
54830.8;-209
54838.5;-180
54846.2;-177
54853.8;-147
54861.5;-154
54869.2;-220
54876.9;-177
54884.6;-128
54892.3;-141
54900.0;-204
54907.7;-196
54915.4;-214
54923.1;-208
54930.8;-161
54938.5;-107
54946.2;-176
54953.8;-265
54961.5;-187
54969.2;-103
54976.9;-176
54984.6;-248
54992.3;-200
55000.0;-166
55007.7;-139
55015.4;-179
55023.1;-200
55030.8;-176
55038.5;-196
55046.2;-199
55053.8;-144
55061.5;-105
55069.2;10
55076.9;304
55084.6;578
55092.3;250
55100.0;-405
55107.7;-594
55115.4;-525
55123.1;-412
55130.8;-411
55138.5;-435
55146.2;-381
55153.8;-369
55161.5;-331
55169.2;-337
55176.9;-376
55184.6;-305
55192.3;-195
55200.0;-169
55207.7;-194
55215.4;-203
55223.1;-173
55230.8;-121
55238.5;-131
55246.2;-167
55253.8;-214
55261.5;-227
55269.2;-157
55276.9;-137
55284.6;-124
55292.3;-131
55300.0;-140
55307.7;-107
55315.4;-92
55323.1;-81
55330.8;-5
55338.5;31
55346.2;34
55353.8;32
55361.5;37
55369.2;48
55376.9;82
55384.6;110
55392.3;79
55400.0;57
55407.7;50
55415.4;-9
55423.1;-63
55430.8;-52
55438.5;-74
55446.2;-127
55453.8;-124
55461.5;-151
55469.2;-189
55476.9;-195
55484.6;-165
55492.3;-152
55500.0;-159
55507.7;-181
55515.4;-219
55523.1;-199
55530.8;-181
55538.5;-194
55546.2;-219
55553.8;-226
55561.5;-223
55569.2;-203
55576.9;-184
55584.6;-180
55592.3;-184
55600.0;-178
55607.7;-133
55615.4;-154
55623.1;-193
55630.8;-149
55638.5;-163
55646.2;-197
55653.8;-198
55661.5;-185
55669.2;-126
55676.9;-170
55684.6;-237
55692.3;-220
55700.0;-154
55707.7;-140
55715.4;-171
55723.1;-178
55730.8;-173
55738.5;-170
55746.2;-157
55753.8;-137
55761.5;-164
55769.2;-168
55776.9;-151
55784.6;-117
55792.3;-33
55800.0;183
55807.7;523
55815.4;576
55823.1;-18
55830.8;-533
55838.5;-532
55846.2;-415
55853.8;-385
55861.5;-368
55869.2;-306
55876.9;-309
55884.6;-343
55892.3;-357
55900.0;-298
55907.7;-213
55915.4;-169
55923.1;-141
55930.8;-171
55938.5;-177
55946.2;-125
55953.8;-129
55961.5;-147
55969.2;-113
55976.9;-95
55984.6;-115
55992.3;-160
56000.0;-123
56007.7;-105
56015.4;-88
56023.1;-62
56030.8;-66
56038.5;-62
56046.2;-67
56053.8;-13
56061.5;16
56069.2;56
56076.9;67
56084.6;49
56092.3;90
56100.0;126
56107.7;158
56115.4;115
56123.1;109
56130.8;115
56138.5;20
56146.2;-20
56153.8;-29
56161.5;-55
56169.2;-55
56176.9;-105
56184.6;-156
56192.3;-163
56200.0;-139
56207.7;-161
56215.4;-177
56223.1;-149
56230.8;-166
56238.5;-178
56246.2;-176
56253.8;-154
56261.5;-135
56269.2;-170
56276.9;-197
56284.6;-149
56292.3;-129
56300.0;-177
56307.7;-191
56315.4;-157
56323.1;-126
56330.8;-146
56338.5;-142
56346.2;-128
56353.8;-145
56361.5;-135
56369.2;-160
56376.9;-165
56384.6;-160
56392.3;-123
56400.0;-196
56407.7;-248
56415.4;-210
56423.1;-185
56430.8;-183
56438.5;-201
56446.2;-185
56453.8;-198
56461.5;-184
56469.2;-168
56476.9;-197
56484.6;-244
56492.3;-166
56500.0;-153
56507.7;-221
56515.4;-193
56523.1;-209
56530.8;-197
56538.5;-181
56546.2;-173
56553.8;-193
56561.5;-175
56569.2;-197
56576.9;-232
56584.6;-192
56592.3;-157
56600.0;-193
56607.7;-195
56615.4;-185
56623.1;-176
56630.8;-182
56638.5;-230
56646.2;-204
56653.8;-183
56661.5;-219
56669.2;-224
56676.9;-191
56684.6;-160
56692.3;-177
56700.0;-183
56707.7;-204
56715.4;-162
56723.1;-161
56730.8;-222
56738.5;-230
56746.2;-217
56753.8;-177
56761.5;-177
56769.2;-158
56776.9;-223
56784.6;-222
56792.3;-156
56800.0;-171
56807.7;-233
56815.4;-226
56823.1;-199
56830.8;-230
56838.5;-208
56846.2;-177
56853.8;-196
56861.5;-200
56869.2;-184
56876.9;-200
56884.6;-176
56892.3;-198
56900.0;-205
56907.7;-149
56915.4;-199
56923.1;-222
56930.8;-193
56938.5;-154
56946.2;-192
56953.8;-253
56961.5;-227
56969.2;-206
56976.9;-169
56984.6;-152
56992.3;-167
57000.0;-176
57007.7;-174
57015.4;-184
57023.1;-227
57030.8;-234
57038.5;-206
57046.2;-202
57053.8;-192
57061.5;-174
57069.2;-157
57076.9;-154
57084.6;-214
57092.3;-191
57100.0;-194
57107.7;-218
57115.4;-149
57123.1;-187
57130.8;-245
57138.5;-180
57146.2;-182
57153.8;-228
57161.5;-233
57169.2;-216
57176.9;-181
57184.6;-173
57192.3;-188
57200.0;-212
57207.7;-158
57215.4;-179
57223.1;-234
57230.8;-196
57238.5;-141
57246.2;-204
57253.8;-235
57261.5;-207
57269.2;-168
57276.9;-173
57284.6;-192
57292.3;-185
57300.0;-139
57307.7;-165
57315.4;-244
57323.1;-211
57330.8;-194
57338.5;-157
57346.2;-175
57353.8;-211
57361.5;-220
57369.2;-182
57376.9;-158
57384.6;-179
57392.3;-163
57400.0;-161
57407.7;-168
57415.4;-144
57423.1;-206
57430.8;-222
57438.5;-132
57446.2;-156
57453.8;-193
57461.5;-212
57469.2;-205
57476.9;-172
57484.6;-172
57492.3;-177
57500.0;-189
57507.7;-178
57515.4;-159
57523.1;-135
57530.8;-189
57538.5;-219
57546.2;-181
57553.8;-157
57561.5;-177
57569.2;-174
57576.9;-95
57584.6;-88
57592.3;-194
57600.0;-260
57607.7;-220
57615.4;-184
57623.1;-144
57630.8;-131
57638.5;-195
57646.2;-225
57653.8;-181
57661.5;-176
57669.2;-155
57676.9;-60
57684.6;-3
57692.3;-263
57700.0;-336
57707.7;-161
57715.4;-149
57723.1;-178
57730.8;-160
57738.5;-132
57746.2;-143
57753.8;-146
57761.5;-151
57769.2;-115
57776.9;-126
57784.6;-151
57792.3;-145
57800.0;-167
57807.7;-189
57815.4;-189
57823.1;-179
57830.8;-139
57838.5;-126
57846.2;-175
57853.8;-156
57861.5;-158
57869.2;-167
57876.9;-90
57884.6;-135
57892.3;-224
57900.0;-212
57907.7;-192
57915.4;-183
57923.1;-167
57930.8;-94
57938.5;-95
57946.2;-217
57953.8;-219
57961.5;-163
57969.2;-129
57976.9;-131
57984.6;-133
57992.3;-182
58000.0;-180
58007.7;-133
58015.4;-118
58023.1;-157
58030.8;-218
58038.5;-208
58046.2;-159
58053.8;-116
58061.5;-141
58069.2;-187
58076.9;-179
58084.6;-173
58092.3;-169
58100.0;-135
58107.7;-141
58115.4;-141
58123.1;-150
58130.8;-148
58138.5;-193
58146.2;-219
58153.8;-170
58161.5;-95
58169.2;-57
58176.9;-180
58184.6;-249
58192.3;-192
58200.0;-93
58207.7;-50
58215.4;-189
58223.1;-253
58230.8;-164
58238.5;-128
58246.2;-95
58253.8;-71
58261.5;-159
58269.2;-175
58276.9;-76
58284.6;-59
58292.3;-116
58300.0;-73
58307.7;-70
58315.4;-123
58323.1;-134
58330.8;-114
58338.5;-107
58346.2;-132
58353.8;-131
58361.5;-133
58369.2;-144
58376.9;-157
58384.6;-194
58392.3;-204
58400.0;-158
58407.7;-150
58415.4;-162
58423.1;-195
58430.8;-170
58438.5;-113
58446.2;-151
58453.8;-189
58461.5;-51
58469.2;182
58476.9;432
58484.6;461
58492.3;-134
58500.0;-475
58507.7;-476
58515.4;-433
58523.1;-421
58530.8;-406
58538.5;-351
58546.2;-388
58553.8;-433
58561.5;-369
58569.2;-273
58576.9;-191
58584.6;-178
58592.3;-178
58600.0;-194
58607.7;-199
58615.4;-157
58623.1;-188
58630.8;-212
58638.5;-141
58646.2;-134
58653.8;-208
58661.5;-200
58669.2;-132
58676.9;-131
58684.6;-158
58692.3;-152
58700.0;-124
58707.7;-82
58715.4;-114
58723.1;-135
58730.8;-78
58738.5;-32
58746.2;3
58753.8;14
58761.5;31
58769.2;40
58776.9;60
58784.6;65
58792.3;64
58800.0;124
58807.7;55
58815.4;-19
58823.1;-39
58830.8;-44
58838.5;-31
58846.2;-79
58853.8;-119
58861.5;-129
58869.2;-109
58876.9;-122
58884.6;-166
58892.3;-154
58900.0;-118
58907.7;-135
58915.4;-189
58923.1;-173
58930.8;-128
58938.5;-147
58946.2;-166
58953.8;-187
58961.5;-161
58969.2;-139
58976.9;-117
58984.6;-115
58992.3;-156
59000.0;-131
59007.7;-141
59015.4;-180
59023.1;-179
59030.8;-136
59038.5;-109
59046.2;-160
59053.8;-176
59061.5;-161
59069.2;-142
59076.9;-146
59084.6;-144
59092.3;-156
59100.0;-141
59107.7;-110
59115.4;-143
59123.1;-213
59130.8;-193
59138.5;-131
59146.2;-148
59153.8;-202
59161.5;-158
59169.2;-145
59176.9;-194
59184.6;-198
59192.3;-178
59200.0;-144
59207.7;-131
59215.4;-169
59223.1;-197
59230.8;-155
59238.5;-151
59246.2;-186
59253.8;-156
59261.5;-154
59269.2;-171
59276.9;-174
59284.6;-193
59292.3;-155
59300.0;-186
59307.7;-224
59315.4;-175
59323.1;-141
59330.8;-205
59338.5;-217
59346.2;-201
59353.8;-203
59361.5;-196
59369.2;-193
59376.9;-177
59384.6;-188
59392.3;-185
59400.0;-168
59407.7;-158
59415.4;-158
59423.1;-172
59430.8;-193
59438.5;-200
59446.2;-158
59453.8;-135
59461.5;-132
59469.2;-115
59476.9;-94
59484.6;-100
59492.3;-120
59500.0;-125
59507.7;-148
59515.4;-169
59523.1;-153
59530.8;-128
59538.5;-188
59546.2;-226
59553.8;-224
59561.5;-235
59569.2;-217
59576.9;-209
59584.6;-215
59592.3;-214
59600.0;-185
59607.7;-206
59615.4;-248
59623.1;-236
59630.8;-188
59638.5;-136
59646.2;-153
59653.8;-122
59661.5;-127
59669.2;48
59676.9;305
59684.6;258
59692.3;-254
59700.0;-544
59707.7;-469
59715.4;-429
59723.1;-423
59730.8;-482
59738.5;-444
59746.2;-379
59753.8;-398
59761.5;-405
59769.2;-351
59776.9;-287
59784.6;-237
59792.3;-200
59800.0;-191
59807.7;-183
59815.4;-167
59823.1;-199
59830.8;-235
59838.5;-191
59846.2;-195
59853.8;-192
59861.5;-159
59869.2;-153
59876.9;-149
59884.6;-170
59892.3;-162
59900.0;-123
59907.7;-74
59915.4;-90
59923.1;-124
59930.8;-114
59938.5;-85
59946.2;-75
59953.8;-45
59961.5;19
59969.2;50
59976.9;41
59984.6;-13
59992.3;9
60000.0;42
60007.7;51
60015.4;33
60023.1;24
60030.8;-29
60038.5;-81
60046.2;-69
60053.8;-121
60061.5;-209
60069.2;-189
60076.9;-155
60084.6;-251
60092.3;-349
60100.0;-286
60107.7;-247
60115.4;-268
60123.1;-259
60130.8;-218
60138.5;-185
60146.2;-207
60153.8;-206
60161.5;-198
60169.2;-194
60176.9;-188
60184.6;-176
60192.3;-146
60200.0;-170
60207.7;-223
60215.4;-205
60223.1;-184
60230.8;-203
60238.5;-218
60246.2;-217
60253.8;-194
60261.5;-191
60269.2;-150
60276.9;-175
60284.6;-224
60292.3;-196
60300.0;-203
60307.7;-215
60315.4;-198
60323.1;-197
60330.8;-175
60338.5;-150
60346.2;12
60353.8;330
60361.5;473
60369.2;-20
60376.9;-474
60384.6;-493
60392.3;-447
60400.0;-385
60407.7;-426
60415.4;-412
60423.1;-352
60430.8;-377
60438.5;-386
60446.2;-353
60453.8;-317
60461.5;-221
60469.2;-159
60476.9;-197
60484.6;-230
60492.3;-185
60500.0;-149
60507.7;-174
60515.4;-160
60523.1;-151
60530.8;-183
60538.5;-138
60546.2;-181
60553.8;-200
60561.5;-156
60569.2;-140
60576.9;-145
60584.6;-107
60592.3;-78
60600.0;-23
60607.7;2
60615.4;8
60623.1;-1
60630.8;86
60638.5;95
60646.2;-31
60653.8;47
60661.5;97
60669.2;58
60676.9;3
60684.6;15
60692.3;-51
60700.0;-105
60707.7;-57
60715.4;-182
60723.1;-221
60730.8;-135
60738.5;-106
60746.2;-256
60753.8;-301
60761.5;-215
60769.2;-240
60776.9;-203
60784.6;-158
60792.3;-218
60800.0;-254
60807.7;-220
60815.4;-224
60823.1;-266
60830.8;-290
60838.5;-209
60846.2;-131
60853.8;-209
60861.5;-234
60869.2;-207
60876.9;-244
60884.6;-241
60892.3;-156
60900.0;-167
60907.7;-168
60915.4;-174
60923.1;-218
60930.8;-157
60938.5;-233
60946.2;-265
60953.8;-110
60961.5;-182
60969.2;-243
60976.9;-196
60984.6;-186
60992.3;-200
61000.0;-134
61007.7;-164
61015.4;-203
61023.1;-146
61030.8;-165
61038.5;-256
61046.2;-157
61053.8;-58
61061.5;-139
61069.2;-40
61076.9;284
61084.6;568
61092.3;222
61100.0;-383
61107.7;-419
61115.4;-351
61123.1;-391
61130.8;-279
61138.5;-392
61146.2;-441
61153.8;-316
61161.5;-351
61169.2;-392
61176.9;-257
61184.6;-113
61192.3;-50
61200.0;-89
61207.7;-181
61215.4;-135
61223.1;-178
61230.8;-117
61238.5;-35
61246.2;-178
61253.8;-242
61261.5;-127
61269.2;25
61276.9;-102
61284.6;-175
61292.3;-136
61300.0;-188
61307.7;-59
61315.4;44
61323.1;-57
61330.8;-116
61338.5;61
61346.2;212
61353.8;125
61361.5;-30
61369.2;44
61376.9;129
61384.6;80
61392.3;114
61400.0;127
61407.7;10
61415.4;-2
61423.1;-70
61430.8;-117
61438.5;-66
61446.2;-108
61453.8;-176
61461.5;-250
61469.2;-186
61476.9;-182
61484.6;-147
61492.3;-139
61500.0;-194
61507.7;-219
61515.4;-157
61523.1;-229
61530.8;-288
61538.5;-132
61546.2;-221
61553.8;-183
61561.5;-122
61569.2;-158
61576.9;-234
61584.6;-177
61592.3;-160
61600.0;-158
61607.7;-35
61615.4;-187
61623.1;-334
61630.8;-250
61638.5;-124
61646.2;-181
61653.8;-207
61661.5;-171
61669.2;-146
61676.9;-181
61684.6;-202
61692.3;-259
61700.0;-319
61707.7;-244
61715.4;-199
61723.1;-211
61730.8;-176
61738.5;-168
61746.2;-143
61753.8;-274
61761.5;-236
61769.2;-112
61776.9;-157
61784.6;-229
61792.3;-222
61800.0;-176
61807.7;-215
61815.4;-144
61823.1;-187
61830.8;-297
61838.5;-300
61846.2;-216
61853.8;-193
61861.5;-154
61869.2;-81
61876.9;-173
61884.6;-324
61892.3;-236
61900.0;-190
61907.7;-182
61915.4;-178
61923.1;-249
61930.8;-196
61938.5;-186
61946.2;-233
61953.8;-149
61961.5;-126
61969.2;-257
61976.9;-222
61984.6;-225
61992.3;-257
62000.0;-229
62007.7;-139
62015.4;-214
62023.1;-277
62030.8;-170
62038.5;-162
62046.2;-230
62053.8;-205
62061.5;-150
62069.2;-171
62076.9;-168
62084.6;-211
62092.3;-219
62100.0;-180
62107.7;-208
62115.4;-218
62123.1;-253
62130.8;-257
62138.5;-210
62146.2;-195
62153.8;-199
62161.5;-201
62169.2;-151
62176.9;-116
62184.6;-182
62192.3;-244
62200.0;-121
62207.7;-205
62215.4;-161
62223.1;-165
62230.8;-290
62238.5;-243
62246.2;-165
62253.8;-102
62261.5;-123
62269.2;-254
62276.9;-265
62284.6;-270
62292.3;-244
62300.0;-148
62307.7;-139
62315.4;-159
62323.1;-223
62330.8;-255
62338.5;-38
62346.2;31
62353.8;-340
62361.5;-345
62369.2;-129
62376.9;-170
62384.6;-154
62392.3;-246
62400.0;-220
62407.7;-129
62415.4;-177
62423.1;-144
62430.8;-149
62438.5;-228
62446.2;-133
62453.8;-197
62461.5;-229
62469.2;-101
62476.9;-151
62484.6;-262
62492.3;-162
62500.0;-142
62507.7;-179
62515.4;-213
62523.1;-153
62530.8;-182
62538.5;-266
62546.2;-157
62553.8;-163
62561.5;-146
62569.2;-159
62576.9;-241
62584.6;-144
62592.3;-181
62600.0;-209
62607.7;-229
62615.4;-244
62623.1;-151
62630.8;-151
62638.5;-143
62646.2;-225
62653.8;-252
62661.5;-196
62669.2;-134
62676.9;-102
62684.6;-256
62692.3;-165
62700.0;-1
62707.7;-175
62715.4;-228
62723.1;-144
62730.8;-192
62738.5;-182
62746.2;-116
62753.8;-68
62761.5;-212
62769.2;-209
62776.9;-46
62784.6;28
62792.3;-243
62800.0;-413
62807.7;-195
62815.4;-77
62823.1;-306
62830.8;-284
62838.5;-172
62846.2;-193
62853.8;-196
62861.5;-219
62869.2;-260
62876.9;-115
62884.6;-41
62892.3;-263
62900.0;-209
62907.7;148
62915.4;317
62923.1;295
62930.8;-268
62938.5;-520
62946.2;-491
62953.8;-464
62961.5;-353
62969.2;-336
62976.9;-279
62984.6;-264
62992.3;-481
63000.0;-521
63007.7;-190
63015.4;-121
63023.1;-455
63030.8;-324
63038.5;-27
63046.2;-82
63053.8;-335
63061.5;-345
63069.2;-169
63076.9;-73
63084.6;-192
63092.3;-324
63100.0;-198
63107.7;-167
63115.4;-171
63123.1;-152
63130.8;-184
63138.5;-147
63146.2;-134
63153.8;-132
63161.5;-112
63169.2;-79
63176.9;41
63184.6;95
63192.3;-157
63200.0;-75
63207.7;27
63215.4;-58
63223.1;-39
63230.8;-8
63238.5;21
63246.2;36
63253.8;92
63261.5;29
63269.2;84
63276.9;-36
63284.6;-208
63292.3;-142
63300.0;-90
63307.7;-123
63315.4;-185
63323.1;-161
63330.8;-172
63338.5;-219
63346.2;-241
63353.8;-230
63361.5;-196
63369.2;-150
63376.9;-87
63384.6;-76
63392.3;-41
63400.0;-188
63407.7;-214
63415.4;-139
63423.1;-145
63430.8;-164
63438.5;-128
63446.2;-31
63453.8;-84
63461.5;-164
63469.2;-124
63476.9;-117
63484.6;-116
63492.3;-175
63500.0;-142
63507.7;-52
63515.4;-134
63523.1;-230
63530.8;-150
63538.5;-86
63546.2;-106
63553.8;-118
63561.5;-116
63569.2;-14
63576.9;300
63584.6;533
63592.3;162
63600.0;-395
63607.7;-488
63615.4;-356
63623.1;-343
63630.8;-388
63638.5;-321
63646.2;-226
63653.8;-281
63661.5;-307
63669.2;-332
63676.9;-272
63684.6;-161
63692.3;-193
63700.0;-171
63707.7;-124
63715.4;-156
63723.1;-215
63730.8;-150
63738.5;-128
63746.2;-132
63753.8;-99
63761.5;-146
63769.2;-178
63776.9;-93
63784.6;-48
63792.3;-82
63800.0;-133
63807.7;-171
63815.4;-39
63823.1;-3
63830.8;-18
63838.5;10
63846.2;29
63853.8;34
63861.5;57
63869.2;88
63876.9;109
63884.6;128
63892.3;67
63900.0;101
63907.7;59
63915.4;-51
63923.1;-59
63930.8;-103
63938.5;-88
63946.2;-87
63953.8;-150
63961.5;-207
63969.2;-160
63976.9;-132
63984.6;-153
63992.3;-218
64000.0;-255
64007.7;-195
64015.4;-134
64023.1;-209
64030.8;-264
64038.5;-182
64046.2;-144
64053.8;-173
64061.5;-225
64069.2;-246
64076.9;-224
64084.6;-196
64092.3;-226
64100.0;-240
64107.7;-169
64115.4;-178
64123.1;-185
64130.8;-181
64138.5;-177
64146.2;-196
64153.8;-190
64161.5;-199
64169.2;-225
64176.9;-170
64184.6;-202
64192.3;-227
64200.0;-187
64207.7;-159
64215.4;-202
64223.1;-200
64230.8;-157
64238.5;-145
64246.2;-215
64253.8;-228
64261.5;-157
64269.2;-195
64276.9;-222
64284.6;-164
64292.3;-134
64300.0;-82
64307.7;93
64315.4;327
64323.1;365
64330.8;-175
64338.5;-572
64346.2;-430
64353.8;-381
64361.5;-469
64369.2;-456
64376.9;-367
64384.6;-296
64392.3;-385
64400.0;-401
64407.7;-311
64415.4;-242
64423.1;-246
64430.8;-229
64438.5;-159
64446.2;-210
64453.8;-260
64461.5;-191
64469.2;-160
64476.9;-206
64484.6;-225
64492.3;-191
64500.0;-125
64507.7;-151
64515.4;-208
64523.1;-234
64530.8;-173
64538.5;-99
64546.2;-120
64553.8;-153
64561.5;-112
64569.2;-64
64576.9;-53
64584.6;-8
64592.3;39
64600.0;41
64607.7;14
64615.4;-35
64623.1;-52
64630.8;-26
64638.5;-1
64646.2;-17
64653.8;-66
64661.5;-66
64669.2;-66
64676.9;-168
64684.6;-209
64692.3;-178
64700.0;-140
64707.7;-146
64715.4;-226
64723.1;-227
64730.8;-178
64738.5;-185
64746.2;-239
64753.8;-197
64761.5;-179
64769.2;-196
64776.9;-193
64784.6;-180
64792.3;-144
64800.0;-177
64807.7;-184
64815.4;-153
64823.1;-150
64830.8;-150
64838.5;-145
64846.2;-163
64853.8;-194
64861.5;-172
64869.2;-166
64876.9;-156
64884.6;-210
64892.3;-227
64900.0;-167
64907.7;-173
64915.4;-224
64923.1;-214
64930.8;-182
64938.5;-191
64946.2;-208
64953.8;-194
64961.5;-180
64969.2;-169
64976.9;-183
64984.6;-195
64992.3;-189
65000.0;-206
65007.7;-198
65015.4;-181
65023.1;-190
65030.8;-164
65038.5;-155
65046.2;-187
65053.8;-152
65061.5;-134
65069.2;-215
65076.9;-257
65084.6;-196
65092.3;-167
65100.0;-223
65107.7;-225
65115.4;-191
65123.1;-169
65130.8;-161
65138.5;-155
65146.2;-182
65153.8;-137
65161.5;-104
65169.2;-213
65176.9;-289
65184.6;-209
65192.3;-166
65200.0;-176
65207.7;-185
65215.4;-170
65223.1;-161
65230.8;-196
65238.5;-191
65246.2;-161
65253.8;-138
65261.5;-172
65269.2;-221
65276.9;-199
65284.6;-192
65292.3;-197
65300.0;-166
65307.7;-140
65315.4;-171
65323.1;-188
65330.8;-151
65338.5;-194
65346.2;-242
65353.8;-186
65361.5;-164
65369.2;-180
65376.9;-164
65384.6;-136
65392.3;-181
65400.0;-203
65407.7;-134
65415.4;-151
65423.1;-212
65430.8;-188
65438.5;-154
65446.2;-165
65453.8;-176
65461.5;-173
65469.2;-147
65476.9;-145
65484.6;-161
65492.3;-144
65500.0;-139
65507.7;-155
65515.4;-160
65523.1;-161
65530.8;-168
65538.5;-183
65546.2;-167
65553.8;-130
65561.5;-144
65569.2;-151
65576.9;-180
65584.6;-188
65592.3;-174
65600.0;-183
65607.7;-132
65615.4;-126
65623.1;-196
65630.8;-179
65638.5;-121
65646.2;-145
65653.8;-211
65661.5;-165
65669.2;-119
65676.9;-137
65684.6;-173
65692.3;-192
65700.0;-168
65707.7;-138
65715.4;-141
65723.1;-158
65730.8;-149
65738.5;-136
65746.2;-167
65753.8;-209
65761.5;-168
65769.2;-93
65776.9;-164
65784.6;-227
65792.3;-177
65800.0;-126
65807.7;-119
65815.4;-138
65823.1;-193
65830.8;-188
65838.5;-144
65846.2;-140
65853.8;-172
65861.5;-164
65869.2;-133
65876.9;-148
65884.6;-203
65892.3;-182
65900.0;-129
65907.7;-123
65915.4;-129
65923.1;-110
65930.8;-54
65938.5;-94
65946.2;-119
65953.8;-52
65961.5;-91
65969.2;-126
65976.9;-92
65984.6;-113
65992.3;-98
66000.0;-72
66007.7;-127
66015.4;-155
66023.1;-143
66030.8;-98
66038.5;-142
66046.2;-225
66053.8;-208
66061.5;-153
66069.2;-121
66076.9;-126
66084.6;-205
66092.3;-203
66100.0;-122
66107.7;-112
66115.4;-130
66123.1;-64
66130.8;162
66138.5;502
66146.2;628
66153.8;9
66161.5;-496
66169.2;-481
66176.9;-404
66184.6;-423
66192.3;-457
66200.0;-328
66207.7;-275
66215.4;-348
66223.1;-366
66230.8;-315
66238.5;-233
66246.2;-165
66253.8;-97
66261.5;-167
66269.2;-241
66276.9;-164
66284.6;-176
66292.3;-197
66300.0;-150
66307.7;-116
66315.4;-132
66323.1;-140
66330.8;-159
66338.5;-157
66346.2;-117
66353.8;-119
66361.5;-119
66369.2;-70
66376.9;-62
66384.6;-62
66392.3;-82
66400.0;-56
66407.7;-6
66415.4;26
66423.1;38
66430.8;47
66438.5;53
66446.2;60
66453.8;43
66461.5;55
66469.2;79
66476.9;57
66484.6;36
66492.3;-17
66500.0;-31
66507.7;-55
66515.4;-96
66523.1;-108
66530.8;-115
66538.5;-143
66546.2;-177
66553.8;-220
66561.5;-205
66569.2;-203
66576.9;-211
66584.6;-195
66592.3;-180
66600.0;-133
66607.7;-123
66615.4;-144
66623.1;-149
66630.8;-152
66638.5;-133
66646.2;-131
66653.8;-133
66661.5;-122
66669.2;-108
66676.9;-119
66684.6;-125
66692.3;-155
66700.0;-169
66707.7;-178
66715.4;-148
66723.1;-109
66730.8;-142
66738.5;-146
66746.2;-157
66753.8;-150
66761.5;-116
66769.2;-117
66776.9;-99
66784.6;-65
66792.3;11
66800.0;244
66807.7;559
66815.4;400
66823.1;-297
66830.8;-501
66838.5;-342
66846.2;-306
66853.8;-409
66861.5;-393
66869.2;-271
66876.9;-283
66884.6;-281
66892.3;-303
66900.0;-245
66907.7;-155
66915.4;-133
66923.1;-133
66930.8;-84
66938.5;-104
66946.2;-155
66953.8;-149
66961.5;-89
66969.2;-62
66976.9;-128
66984.6;-173
66992.3;-166
67000.0;-96
67007.7;-95
67015.4;-78
67023.1;-55
67030.8;-31
67038.5;-22
67046.2;-1
67053.8;24
67061.5;66
67069.2;70
67076.9;87
67084.6;158
67092.3;155
67100.0;98
67107.7;74
67115.4;87
67123.1;68
67130.8;26
67138.5;0
67146.2;-61
67153.8;-115
67161.5;-139
67169.2;-138
67176.9;-126
67184.6;-161
67192.3;-200
67200.0;-168
67207.7;-156
67215.4;-184
67223.1;-194
67230.8;-167
67238.5;-153
67246.2;-157
67253.8;-186
67261.5;-195
67269.2;-153
67276.9;-129
67284.6;-176
67292.3;-216
67300.0;-190
67307.7;-170
67315.4;-169
67323.1;-151
67330.8;-124
67338.5;-133
67346.2;-145
67353.8;-134
67361.5;-176
67369.2;-217
67376.9;-143
67384.6;-105
67392.3;-171
67400.0;-211
67407.7;-190
67415.4;-126
67423.1;-170
67430.8;-184
67438.5;-127
67446.2;-108
67453.8;-133
67461.5;-206
67469.2;-158
67476.9;-128
67484.6;-131
67492.3;-122
67500.0;-73
67507.7;64
67515.4;253
67523.1;525
67530.8;507
67538.5;-62
67546.2;-477
67553.8;-476
67561.5;-411
67569.2;-380
67576.9;-374
67584.6;-317
67592.3;-296
67600.0;-325
67607.7;-318
67615.4;-318
67623.1;-238
67630.8;-142
67638.5;-120
67646.2;-137
67653.8;-154
67661.5;-149
67669.2;-88
67676.9;-112
67684.6;-217
67692.3;-197
67700.0;-128
67707.7;-100
67715.4;-102
67723.1;-134
67730.8;-137
67738.5;-92
67746.2;-69
67753.8;-83
67761.5;-52
67769.2;-22
67776.9;4
67784.6;29
67792.3;43
67800.0;58
67807.7;69
67815.4;71
67823.1;77
67830.8;81
67838.5;83
67846.2;45
67853.8;-8
67861.5;-23
67869.2;-23
67876.9;-67
67884.6;-131
67892.3;-166
67900.0;-180
67907.7;-199
67915.4;-210
67923.1;-222
67930.8;-215
67938.5;-194
67946.2;-208
67953.8;-203
67961.5;-204
67969.2;-240
67976.9;-261
67984.6;-252
67992.3;-231
68000.0;-180
68007.7;-175
68015.4;-211
68023.1;-201
68030.8;-157
68038.5;-145
68046.2;-201
68053.8;-239
68061.5;-189
68069.2;-150
68076.9;-210
68084.6;-246
68092.3;-192
68100.0;-153
68107.7;-178
68115.4;-203
68123.1;-237
68130.8;-226
68138.5;-217
68146.2;-217
68153.8;-207
68161.5;-202
68169.2;-191
68176.9;-182
68184.6;-185
68192.3;-178
68200.0;-178
68207.7;-133
68215.4;-31
68223.1;99
68230.8;312
68238.5;432
68246.2;-37
68253.8;-537
68261.5;-555
68269.2;-445
68276.9;-404
68284.6;-468
68292.3;-451
68300.0;-344
68307.7;-365
68315.4;-401
68323.1;-384
68330.8;-319
68338.5;-262
68346.2;-216
68353.8;-241
68361.5;-247
68369.2;-218
68376.9;-212
68384.6;-217
68392.3;-218
68400.0;-228
68407.7;-220
68415.4;-195
68423.1;-220
68430.8;-209
68438.5;-184
68446.2;-163
68453.8;-179
68461.5;-186
68469.2;-149
68476.9;-115
68484.6;-81
68492.3;-83
68500.0;-66
68507.7;-26
68515.4;-7
68523.1;9
68530.8;46
68538.5;45
68546.2;7
68553.8;14
68561.5;-7
68569.2;-54
68576.9;-61
68584.6;-95
68592.3;-153
68600.0;-194
68607.7;-180
68615.4;-200
68623.1;-243
68630.8;-235
68638.5;-205
68646.2;-218
68653.8;-254
68661.5;-253
68669.2;-236
68676.9;-226
68684.6;-223
68692.3;-212
68700.0;-232
68707.7;-246
68715.4;-229
68723.1;-219
68730.8;-219
68738.5;-220
68746.2;-173
68753.8;-172
68761.5;-218
68769.2;-232
68776.9;-225
68784.6;-247
68792.3;-248
68800.0;-218
68807.7;-219
68815.4;-223
68823.1;-216
68830.8;-244
68838.5;-246
68846.2;-236
68853.8;-230
68861.5;-250
68869.2;-236
68876.9;-222
68884.6;-221
68892.3;-261
68900.0;-262
68907.7;-238
68915.4;-258
68923.1;-260
68930.8;-239
68938.5;-223
68946.2;-246
68953.8;-253
68961.5;-255
68969.2;-252
68976.9;-243
68984.6;-239
68992.3;-228
69000.0;-212
69007.7;-255
69015.4;-275
69023.1;-230
69030.8;-204
69038.5;-175
69046.2;-198
69053.8;-294
69061.5;-304
69069.2;-246
69076.9;-217
69084.6;-219
69092.3;-200
69100.0;-198
69107.7;-203
69115.4;-212
69123.1;-239
69130.8;-211
69138.5;-193
69146.2;-228
69153.8;-222
69161.5;-196
69169.2;-190
69176.9;-211
69184.6;-216
69192.3;-224
69200.0;-217
69207.7;-200
69215.4;-192
69223.1;-198
69230.8;-219
69238.5;-210
69246.2;-196
69253.8;-201
69261.5;-180
69269.2;-186
69276.9;-206
69284.6;-253
69292.3;-237
69300.0;-191
69307.7;-196
69315.4;-210
69323.1;-219
69330.8;-204
69338.5;-194
69346.2;-199
69353.8;-215
69361.5;-211
69369.2;-195
69376.9;-197
69384.6;-177
69392.3;-206
69400.0;-222
69407.7;-190
69415.4;-195
69423.1;-222
69430.8;-219
69438.5;-177
69446.2;-169
69453.8;-193
69461.5;-194
69469.2;-172
69476.9;-194
69484.6;-221
69492.3;-212
69500.0;-178
69507.7;-171
69515.4;-190
69523.1;-183
69530.8;-210
69538.5;-221
69546.2;-176
69553.8;-195
69561.5;-208
69569.2;-178
69576.9;-187
69584.6;-207
69592.3;-223
69600.0;-189
69607.7;-174
69615.4;-178
69623.1;-181
69630.8;-228
69638.5;-218
69646.2;-201
69653.8;-221
69661.5;-216
69669.2;-175
69676.9;-174
69684.6;-213
69692.3;-218
69700.0;-193
69707.7;-184
69715.4;-193
69723.1;-195
69730.8;-183
69738.5;-136
69746.2;-167
69753.8;-245
69761.5;-233
69769.2;-169
69776.9;-163
69784.6;-188
69792.3;-201
69800.0;-224
69807.7;-202
69815.4;-180
69823.1;-221
69830.8;-221
69838.5;-175
69846.2;-195
69853.8;-226
69861.5;-219
69869.2;-159
69876.9;-169
69884.6;-246
69892.3;-231
69900.0;-183
69907.7;-191
69915.4;-227
69923.1;-250
69930.8;-234
69938.5;-177
69946.2;-156
69953.8;-204
69961.5;-236
69969.2;-202
69976.9;-186
69984.6;-178
69992.3;-159
70000.0;-159
70007.7;-127
70015.4;-132
70023.1;-149
70030.8;-141
70038.5;-123
70046.2;-162
70053.8;-176
70061.5;-179
70069.2;-192
70076.9;-173
70084.6;-180
70092.3;-218
70100.0;-233
70107.7;-222
70115.4;-237
70123.1;-232
70130.8;-222
70138.5;-190
70146.2;-219
70153.8;-247
70161.5;-225
70169.2;-210
70176.9;-199
70184.6;-188
70192.3;-121
70200.0;-1
70207.7;176
70215.4;366
70223.1;-13
70230.8;-494
70238.5;-529
70246.2;-455
70253.8;-452
70261.5;-465
70269.2;-369
70276.9;-356
70284.6;-402
70292.3;-384
70300.0;-320
70307.7;-253
70315.4;-204
70323.1;-220
70330.8;-232
70338.5;-217
70346.2;-202
70353.8;-212
70361.5;-213
70369.2;-189
70376.9;-210
70384.6;-213
70392.3;-192
70400.0;-181
70407.7;-187
70415.4;-157
70423.1;-173
70430.8;-160
70438.5;-136
70446.2;-113
70453.8;-114
70461.5;-86
70469.2;-53
70476.9;-16
70484.6;-22
70492.3;-46
70500.0;-31
70507.7;16
70515.4;22
70523.1;14
70530.8;-1
70538.5;-14
70546.2;-41
70553.8;-55
70561.5;-101
70569.2;-145
70576.9;-149
70584.6;-172
70592.3;-181
70600.0;-151
70607.7;-164
70615.4;-197
70623.1;-199
70630.8;-186
70638.5;-153
70646.2;-168
70653.8;-229
70661.5;-211
70669.2;-148
70676.9;-138
70684.6;-204
70692.3;-226
70700.0;-176
70707.7;-150
70715.4;-172
70723.1;-176
70730.8;-165
70738.5;-158
70746.2;-171
70753.8;-182
70761.5;-184
70769.2;-172
70776.9;-163
70784.6;-182
70792.3;-190
70800.0;-179
70807.7;-179
70815.4;-177
70823.1;-171
70830.8;-180
70838.5;-187
70846.2;-163
70853.8;-186
70861.5;-202
70869.2;-182
70876.9;-214
70884.6;-222
70892.3;-202
70900.0;-193
70907.7;-180
70915.4;-188
70923.1;-214
70930.8;-209
70938.5;-183
70946.2;-180
70953.8;-203
70961.5;-190
70969.2;-136
70976.9;-126
70984.6;-214
70992.3;-264
71000.0;-202
71007.7;-167
71015.4;-182
71023.1;-201
71030.8;-199
71038.5;-196
71046.2;-174
71053.8;-207
71061.5;-224
71069.2;-196
71076.9;-198
71084.6;-203
71092.3;-217
71100.0;-201
71107.7;-190
71115.4;-203
71123.1;-212
71130.8;-208
71138.5;-175
71146.2;-177
71153.8;-211
71161.5;-185
71169.2;-187
71176.9;-225
71184.6;-216
71192.3;-186
71200.0;-186
71207.7;-198
71215.4;-201
71223.1;-218
71230.8;-219
71238.5;-173
71246.2;-166
71253.8;-206
71261.5;-218
71269.2;-192
71276.9;-177
71284.6;-175
71292.3;-220
71300.0;-237
71307.7;-202
71315.4;-190
71323.1;-201
71330.8;-196
71338.5;-192
71346.2;-188
71353.8;-193
71361.5;-198
71369.2;-174
71376.9;-186
71384.6;-195
71392.3;-162
71400.0;-174
71407.7;-206
71415.4;-201
71423.1;-206
71430.8;-221
71438.5;-182
71446.2;-177
71453.8;-192
71461.5;-196
71469.2;-189
71476.9;-197
71484.6;-189
71492.3;-181
71500.0;-161
71507.7;-151
71515.4;-186
71523.1;-204
71530.8;-188
71538.5;-161
71546.2;-166
71553.8;-172
71561.5;-209
71569.2;-208
71576.9;-184
71584.6;-193
71592.3;-187
71600.0;-185
71607.7;-163
71615.4;-169
71623.1;-206
71630.8;-204
71638.5;-168
71646.2;-175
71653.8;-181
71661.5;-205
71669.2;-198
71676.9;-194
71684.6;-233
71692.3;-209
71700.0;-182
71707.7;-173
71715.4;-191
71723.1;-183
71730.8;-183
71738.5;-197
71746.2;-182
71753.8;-188
71761.5;-213
71769.2;-205
71776.9;-179
71784.6;-210
71792.3;-218
71800.0;-188
71807.7;-182
71815.4;-197
71823.1;-202
71830.8;-197
71838.5;-187
71846.2;-177
71853.8;-199
71861.5;-183
71869.2;-175
71876.9;-201
71884.6;-209
71892.3;-197
71900.0;-173
71907.7;-174
71915.4;-190
71923.1;-175
71930.8;-162
71938.5;-170
71946.2;-184
71953.8;-190
71961.5;-193
71969.2;-180
71976.9;-150
71984.6;-175
71992.3;-206
72000.0;-182
72007.7;-161
72015.4;-163
72023.1;-183
72030.8;-176
72038.5;-154
72046.2;-152
72053.8;-160
72061.5;-179
72069.2;-161
72076.9;-107
72084.6;-93
72092.3;-110
72100.0;-92
72107.7;-79
72115.4;-72
72123.1;-122
72130.8;-128
72138.5;-112
72146.2;-66
72153.8;-125
72161.5;-215
72169.2;-157
72176.9;-144
72184.6;-208
72192.3;-202
72200.0;-168
72207.7;-177
72215.4;-194
72223.1;-184
72230.8;-173
72238.5;-174
72246.2;-176
72253.8;-160
72261.5;-119
72269.2;-90
72276.9;59
72284.6;305
72292.3;488
72300.0;144
72307.7;-385
72315.4;-465
72323.1;-430
72330.8;-379
72338.5;-391
72346.2;-358
72353.8;-302
72361.5;-373
72369.2;-378
72376.9;-291
72384.6;-222
72392.3;-187
72400.0;-162
72407.7;-182
72415.4;-182
72423.1;-189
72430.8;-151
72438.5;-125
72446.2;-141
72453.8;-164
72461.5;-173
72469.2;-121
72476.9;-119
72484.6;-150
72492.3;-114
72500.0;-105
72507.7;-86
72515.4;-75
72523.1;-66
72530.8;-31
72538.5;-9
72546.2;-22
72553.8;-16
72561.5;30
72569.2;58
72576.9;86
72584.6;102
72592.3;108
72600.0;111
72607.7;126
72615.4;105
72623.1;57
72630.8;38
72638.5;29
72646.2;18
72653.8;-41
72661.5;-77
72669.2;-74
72676.9;-100
72684.6;-119
72692.3;-140
72700.0;-117
72707.7;-115
72715.4;-137
72723.1;-170
72730.8;-178
72738.5;-133
72746.2;-117
72753.8;-124
72761.5;-142
72769.2;-146
72776.9;-121
72784.6;-124
72792.3;-126
72800.0;-136
72807.7;-143
72815.4;-126
72823.1;-127
72830.8;-117
72838.5;-114
72846.2;-108
