timestamp [ms];ecg [uV]
0.0;-171
7.7;-267
15.4;-228
23.1;-255
30.8;-224
38.5;-255
46.2;-243
53.8;-276
61.5;-283
69.2;-287
76.9;-279
84.6;-309
92.3;-298
100.0;-306
107.7;-313
115.4;-311
123.1;-326
130.8;-297
138.5;-300
146.2;-263
153.8;-279
161.5;-255
169.2;-266
176.9;-239
184.6;-257
192.3;-251
200.0;-246
207.7;-249
215.4;-247
223.1;-279
230.8;-277
238.5;-292
246.2;-266
253.8;-281
261.5;-254
269.2;-242
276.9;-166
284.6;-76
292.3;194
300.0;569
307.7;950
315.4;1215
323.1;1061
330.8;493
338.5;42
346.2;-106
353.8;-173
361.5;-193
369.2;-265
376.9;-281
384.6;-320
392.3;-339
400.0;-363
407.7;-390
415.4;-406
423.1;-435
430.8;-434
438.5;-463
446.2;-427
453.8;-453
461.5;-421
469.2;-449
476.9;-429
484.6;-441
492.3;-423
500.0;-403
507.7;-391
515.4;-370
523.1;-368
530.8;-318
538.5;-270
546.2;-209
553.8;-209
561.5;-174
569.2;-208
576.9;-200
584.6;-231
592.3;-238
600.0;-261
607.7;-269
615.4;-275
623.1;-300
630.8;-290
638.5;-307
646.2;-290
653.8;-309
661.5;-282
669.2;-301
676.9;-283
684.6;-290
692.3;-259
700.0;-232
707.7;-208
715.4;-199
723.1;-217
730.8;-175
738.5;-193
746.2;-165
753.8;-181
761.5;-165
769.2;-182
776.9;-188
784.6;-213
792.3;-209
800.0;-222
807.7;-232
815.4;-218
823.1;-256
830.8;-244
838.5;-257
846.2;-230
853.8;-255
861.5;-255
869.2;-270
876.9;-268
884.6;-277
892.3;-262
900.0;-203
907.7;-138
915.4;-42
923.1;183
930.8;568
938.5;950
946.2;1306
953.8;1256
961.5;677
969.2;62
976.9;-193
984.6;-236
992.3;-261
1000.0;-321
1007.7;-337
1015.4;-346
1023.1;-379
1030.8;-368
1038.5;-407
1046.2;-399
1053.8;-419
1061.5;-383
1069.2;-385
1076.9;-378
1084.6;-385
1092.3;-356
1100.0;-365
1107.7;-376
1115.4;-366
1123.1;-388
1130.8;-377
1138.5;-399
1146.2;-374
1153.8;-382
1161.5;-334
1169.2;-315
1176.9;-266
1184.6;-251
1192.3;-234
1200.0;-251
1207.7;-249
1215.4;-267
1223.1;-286
1230.8;-272
1238.5;-288
1246.2;-275
1253.8;-303
1261.5;-272
1269.2;-288
1276.9;-269
1284.6;-286
1292.3;-263
1300.0;-269
1307.7;-269
1315.4;-269
1323.1;-276
1330.8;-245
1338.5;-266
1346.2;-239
1353.8;-272
1361.5;-253
1369.2;-268
1376.9;-270
1384.6;-303
1392.3;-291
1400.0;-279
1407.7;-277
1415.4;-280
1423.1;-286
1430.8;-265
1438.5;-281
1446.2;-273
1453.8;-290
1461.5;-271
1469.2;-268
1476.9;-216
1484.6;-238
1492.3;-216
1500.0;-206
1507.7;-210
1515.4;-214
1523.1;-221
1530.8;-202
1538.5;-241
1546.2;-222
1553.8;-260
1561.5;-221
1569.2;-232
1576.9;-197
1584.6;-213
1592.3;-218
1600.0;-210
1607.7;-213
1615.4;-183
1623.1;-136
1630.8;-3
1638.5;237
1646.2;669
1653.8;1053
1661.5;1384
1669.2;1302
1676.9;708
1684.6;88
1692.3;-198
1700.0;-224
1707.7;-262
1715.4;-296
1723.1;-350
1730.8;-355
1738.5;-400
1746.2;-394
1753.8;-435
1761.5;-421
1769.2;-429
1776.9;-427
1784.6;-443
1792.3;-448
1800.0;-444
1807.7;-445
1815.4;-434
1823.1;-444
1830.8;-419
1838.5;-454
1846.2;-441
1853.8;-457
1861.5;-402
1869.2;-366
1876.9;-324
1884.6;-308
1892.3;-272
1900.0;-264
1907.7;-265
1915.4;-274
1923.1;-290
1930.8;-290
1938.5;-311
1946.2;-293
1953.8;-333
1961.5;-318
1969.2;-329
1976.9;-316
1984.6;-322
1992.3;-300
2000.0;-301
2007.7;-313
2015.4;-295
2023.1;-292
2030.8;-258
2038.5;-274
2046.2;-255
2053.8;-288
2061.5;-269
2069.2;-292
2076.9;-285
2084.6;-308
2092.3;-317
2100.0;-326
2107.7;-342
2115.4;-343
2123.1;-358
2130.8;-343
2138.5;-365
2146.2;-342
2153.8;-363
2161.5;-342
2169.2;-363
2176.9;-297
2184.6;-291
2192.3;-278
2200.0;-278
2207.7;-291
2215.4;-272
2223.1;-276
2230.8;-256
2238.5;-256
2246.2;-162
2253.8;-71
2261.5;256
2269.2;641
2276.9;1018
2284.6;1185
2292.3;797
2300.0;168
2307.7;-134
2315.4;-250
2323.1;-302
2330.8;-361
2338.5;-427
2346.2;-433
2353.8;-443
2361.5;-422
2369.2;-444
2376.9;-432
2384.6;-443
2392.3;-423
2400.0;-420
2407.7;-413
2415.4;-409
2423.1;-409
2430.8;-391
2438.5;-418
2446.2;-417
2453.8;-433
2461.5;-415
2469.2;-443
2476.9;-416
2484.6;-416
2492.3;-392
2500.0;-395
2507.7;-384
2515.4;-366
2523.1;-370
2530.8;-348
2538.5;-379
2546.2;-367
2553.8;-396
2561.5;-373
2569.2;-403
2576.9;-382
2584.6;-400
2592.3;-395
2600.0;-398
2607.7;-401
2615.4;-380
2623.1;-396
2630.8;-375
2638.5;-416
2646.2;-391
2653.8;-401
2661.5;-381
2669.2;-372
2676.9;-346
2684.6;-361
2692.3;-357
2700.0;-362
2707.7;-372
2715.4;-359
2723.1;-378
2730.8;-367
2738.5;-394
2746.2;-376
2753.8;-397
2761.5;-376
2769.2;-404
2776.9;-377
2784.6;-383
2792.3;-373
2800.0;-402
2807.7;-381
2815.4;-329
2823.1;-284
2830.8;-192
2838.5;-35
2846.2;332
2853.8;722
2861.5;1123
2869.2;1179
2876.9;673
2884.6;62
2892.3;-197
2900.0;-276
2907.7;-327
2915.4;-396
2923.1;-436
2930.8;-439
2938.5;-471
2946.2;-460
2953.8;-496
2961.5;-483
2969.2;-498
2976.9;-471
2984.6;-482
2992.3;-465
3000.0;-478
3007.7;-483
3015.4;-466
3023.1;-490
3030.8;-448
3038.5;-457
3046.2;-430
3053.8;-442
3061.5;-401
3069.2;-403
3076.9;-376
3084.6;-358
3092.3;-350
3100.0;-341
3107.7;-346
3115.4;-349
3123.1;-381
3130.8;-381
3138.5;-400
3146.2;-384
3153.8;-413
3161.5;-394
3169.2;-409
3176.9;-395
3184.6;-401
3192.3;-385
3200.0;-396
3207.7;-394
3215.4;-378
3223.1;-374
3230.8;-356
3238.5;-367
3246.2;-333
3253.8;-342
3261.5;-314
3269.2;-348
3276.9;-315
3284.6;-338
3292.3;-315
3300.0;-315
3307.7;-329
3315.4;-321
3323.1;-338
3330.8;-323
3338.5;-347
3346.2;-317
3353.8;-345
3361.5;-311
3369.2;-323
3376.9;-294
3384.6;-303
3392.3;-287
3400.0;-293
3407.7;-301
3415.4;-305
3423.1;-321
3430.8;-282
3438.5;-289
3446.2;-274
3453.8;-324
3461.5;-327
3469.2;-359
3476.9;-346
3484.6;-357
3492.3;-344
3500.0;-348
3507.7;-345
3515.4;-320
3523.1;-317
3530.8;-281
3538.5;-305
3546.2;-277
3553.8;-288
3561.5;-271
3569.2;-284
3576.9;-263
3584.6;-248
3592.3;-213
3600.0;-166
3607.7;-115
3615.4;31
3623.1;398
3630.8;842
3638.5;1195
3646.2;1294
3653.8;712
3661.5;45
3669.2;-320
3676.9;-291
3684.6;-313
3692.3;-340
3700.0;-363
3707.7;-395
3715.4;-378
3723.1;-417
3730.8;-394
3738.5;-391
3746.2;-351
3753.8;-369
3761.5;-340
3769.2;-372
3776.9;-357
3784.6;-363
3792.3;-361
3800.0;-368
3807.7;-382
3815.4;-380
3823.1;-388
3830.8;-361
3838.5;-374
3846.2;-344
3853.8;-350
3861.5;-284
3869.2;-284
3876.9;-251
3884.6;-262
3892.3;-247
3900.0;-254
3907.7;-270
3915.4;-266
3923.1;-289
3930.8;-286
3938.5;-317
3946.2;-287
3953.8;-311
3961.5;-285
3969.2;-312
3976.9;-303
3984.6;-317
3992.3;-312
4000.0;-317
4007.7;-302
4015.4;-288
4023.1;-286
4030.8;-246
4038.5;-258
4046.2;-232
4053.8;-260
4061.5;-234
4069.2;-265
4076.9;-249
4084.6;-265
4092.3;-258
4100.0;-254
4107.7;-265
4115.4;-279
4123.1;-306
4130.8;-302
4138.5;-313
4146.2;-299
4153.8;-325
4161.5;-310
4169.2;-339
4176.9;-331
4184.6;-322
4192.3;-308
4200.0;-314
4207.7;-308
4215.4;-269
4223.1;-269
4230.8;-258
4238.5;-271
4246.2;-196
4253.8;-112
4261.5;169
4269.2;599
4276.9;1088
4284.6;1426
4292.3;1305
4300.0;552
4307.7;-73
4315.4;-261
4323.1;-290
4330.8;-324
4338.5;-395
4346.2;-395
4353.8;-420
4361.5;-396
4369.2;-418
4376.9;-394
4384.6;-406
4392.3;-401
4400.0;-403
4407.7;-405
4415.4;-413
4423.1;-426
4430.8;-390
4438.5;-392
4446.2;-356
4453.8;-387
4461.5;-362
4469.2;-375
4476.9;-345
4484.6;-359
4492.3;-329
4500.0;-300
4507.7;-296
4515.4;-298
4523.1;-319
4530.8;-310
4538.5;-353
4546.2;-344
4553.8;-380
4561.5;-368
4569.2;-400
4576.9;-375
4584.6;-390
4592.3;-374
4600.0;-364
4607.7;-344
4615.4;-329
4623.1;-337
4630.8;-318
4638.5;-319
4646.2;-295
4653.8;-311
4661.5;-302
4669.2;-313
4676.9;-298
4684.6;-323
4692.3;-327
4700.0;-340
4707.7;-347
4715.4;-327
4723.1;-335
4730.8;-321
4738.5;-354
4746.2;-330
4753.8;-349
4761.5;-269
4769.2;-208
4776.9;-56
4784.6;199
4792.3;599
4800.0;1018
4807.7;1209
4815.4;852
4823.1;225
4830.8;-110
4838.5;-269
4846.2;-294
4853.8;-397
4861.5;-393
4869.2;-437
4876.9;-438
4884.6;-459
4892.3;-453
4900.0;-463
4907.7;-469
4915.4;-463
4923.1;-462
4930.8;-451
4938.5;-450
4946.2;-378
4953.8;-370
4961.5;-342
4969.2;-336
4976.9;-287
4984.6;-309
4992.3;-290
5000.0;-292
5007.7;-280
5015.4;-264
5023.1;-269
5030.8;-253
5038.5;-303
5046.2;-296
5053.8;-347
5061.5;-355
5069.2;-394
5076.9;-385
5084.6;-402
5092.3;-408
5100.0;-414
5107.7;-409
5115.4;-406
5123.1;-426
5130.8;-387
5138.5;-393
5146.2;-370
5153.8;-380
5161.5;-371
5169.2;-394
5176.9;-386
5184.6;-397
5192.3;-385
5200.0;-405
5207.7;-401
5215.4;-402
5223.1;-403
5230.8;-385
5238.5;-403
5246.2;-372
5253.8;-392
5261.5;-353
5269.2;-383
5276.9;-366
5284.6;-370
5292.3;-350
5300.0;-362
5307.7;-368
5315.4;-372
5323.1;-396
5330.8;-351
5338.5;-325
5346.2;-294
5353.8;-328
5361.5;-310
5369.2;-342
5376.9;-343
5384.6;-354
5392.3;-335
5400.0;-349
5407.7;-353
5415.4;-325
5423.1;-329
5430.8;-305
5438.5;-335
5446.2;-295
5453.8;-340
5461.5;-317
5469.2;-350
5476.9;-342
5484.6;-364
5492.3;-357
5500.0;-351
5507.7;-367
5515.4;-352
5523.1;-372
5530.8;-359
5538.5;-390
5546.2;-354
5553.8;-347
5561.5;-284
5569.2;-272
5576.9;-221
5584.6;-154
5592.3;-28
5600.0;242
5607.7;623
5615.4;1014
5623.1;1286
5630.8;1107
5638.5;410
5646.2;-62
5653.8;-261
5661.5;-258
5669.2;-330
5676.9;-366
5684.6;-399
5692.3;-415
5700.0;-434
5707.7;-454
5715.4;-448
5723.1;-466
5730.8;-424
5738.5;-423
5746.2;-398
5753.8;-369
5761.5;-316
5769.2;-318
5776.9;-266
5784.6;-277
5792.3;-266
5800.0;-272
5807.7;-274
5815.4;-277
5823.1;-270
5830.8;-249
5838.5;-275
5846.2;-256
5853.8;-262
5861.5;-256
5869.2;-281
5876.9;-288
5884.6;-312
5892.3;-280
5900.0;-270
5907.7;-272
5915.4;-268
5923.1;-287
5930.8;-282
5938.5;-312
5946.2;-286
5953.8;-286
5961.5;-270
5969.2;-280
5976.9;-275
5984.6;-301
5992.3;-294
6000.0;-301
6007.7;-303
6015.4;-307
6023.1;-310
6030.8;-290
6038.5;-305
6046.2;-282
6053.8;-283
6061.5;-242
6069.2;-257
6076.9;-213
6084.6;-219
6092.3;-222
6100.0;-245
6107.7;-253
6115.4;-225
6123.1;-212
6130.8;-197
6138.5;-221
6146.2;-207
6153.8;-241
6161.5;-227
6169.2;-254
6176.9;-241
6184.6;-267
6192.3;-258
6200.0;-268
6207.7;-284
6215.4;-260
6223.1;-259
6230.8;-234
6238.5;-244
6246.2;-197
6253.8;-209
6261.5;-176
6269.2;-148
6276.9;-13
6284.6;247
6292.3;674
6300.0;1128
6307.7;1466
6315.4;1333
6323.1;623
6330.8;16
6338.5;-259
6346.2;-238
6353.8;-286
6361.5;-317
6369.2;-352
6376.9;-343
6384.6;-356
6392.3;-334
6400.0;-344
6407.7;-358
6415.4;-338
6423.1;-346
6430.8;-331
6438.5;-363
6446.2;-338
6453.8;-352
6461.5;-335
6469.2;-354
6476.9;-332
6484.6;-351
6492.3;-342
6500.0;-325
6507.7;-301
6515.4;-279
6523.1;-283
6530.8;-258
6538.5;-258
6546.2;-226
6553.8;-248
6561.5;-214
6569.2;-253
6576.9;-260
6584.6;-276
6592.3;-290
6600.0;-306
6607.7;-333
6615.4;-334
6623.1;-357
6630.8;-348
6638.5;-372
6646.2;-357
6653.8;-380
6661.5;-349
6669.2;-372
6676.9;-354
6684.6;-349
6692.3;-331
6700.0;-316
6707.7;-291
6715.4;-262
6723.1;-240
6730.8;-219
6738.5;-229
6746.2;-211
6753.8;-231
6761.5;-224
6769.2;-282
6776.9;-270
6784.6;-283
6792.3;-265
6800.0;-248
6807.7;-185
6815.4;-69
6823.1;192
6830.8;560
6838.5;933
6846.2;1233
6853.8;1132
6861.5;606
6869.2;98
6876.9;-114
6884.6;-190
6892.3;-205
6900.0;-264
6907.7;-286
6915.4;-304
6923.1;-335
6930.8;-342
6938.5;-398
6946.2;-393
6953.8;-421
6961.5;-409
6969.2;-436
6976.9;-424
6984.6;-433
6992.3;-416
7000.0;-421
7007.7;-415
7015.4;-384
7023.1;-382
7030.8;-355
7038.5;-347
7046.2;-263
7053.8;-252
7061.5;-189
7069.2;-179
7076.9;-140
7084.6;-154
7092.3;-163
7100.0;-190
7107.7;-227
7115.4;-264
7123.1;-305
7130.8;-307
7138.5;-353
7146.2;-355
7153.8;-372
7161.5;-356
7169.2;-387
7176.9;-380
7184.6;-412
7192.3;-397
7200.0;-406
7207.7;-394
7215.4;-384
7223.1;-355
7230.8;-301
7238.5;-296
7246.2;-266
7253.8;-279
7261.5;-239
7269.2;-272
7276.9;-253
7284.6;-283
7292.3;-282
7300.0;-299
7307.7;-314
7315.4;-317
7323.1;-330
7330.8;-318
7338.5;-337
7346.2;-318
7353.8;-351
7361.5;-316
7369.2;-330
7376.9;-304
7384.6;-325
7392.3;-320
7400.0;-337
7407.7;-333
7415.4;-322
7423.1;-308
7430.8;-258
7438.5;-269
7446.2;-219
7453.8;-262
7461.5;-255
7469.2;-277
7476.9;-274
7484.6;-305
7492.3;-311
7500.0;-324
7507.7;-326
7515.4;-321
7523.1;-343
7530.8;-329
7538.5;-349
7546.2;-322
7553.8;-327
7561.5;-291
7569.2;-306
7576.9;-290
7584.6;-292
7592.3;-282
7600.0;-295
7607.7;-289
7615.4;-265
7623.1;-265
7630.8;-245
7638.5;-264
7646.2;-254
7653.8;-291
7661.5;-278
7669.2;-304
7676.9;-309
7684.6;-342
7692.3;-325
7700.0;-348
7707.7;-349
7715.4;-334
7723.1;-342
7730.8;-320
7738.5;-342
7746.2;-307
7753.8;-322
7761.5;-274
7769.2;-294
7776.9;-270
7784.6;-289
7792.3;-278
7800.0;-279
7807.7;-269
7815.4;-235
7823.1;-248
7830.8;-245
7838.5;-263
7846.2;-241
7853.8;-264
7861.5;-242
7869.2;-251
7876.9;-200
7884.6;-152
7892.3;15
7900.0;336
7907.7;723
7915.4;1122
7923.1;1328
7930.8;940
7938.5;258
7946.2;-101
7953.8;-217
7961.5;-202
7969.2;-277
7976.9;-276
7984.6;-326
7992.3;-334
8000.0;-363
8007.7;-383
8015.4;-391
8023.1;-398
8030.8;-391
8038.5;-407
8046.2;-384
8053.8;-399
8061.5;-365
8069.2;-374
8076.9;-345
8084.6;-343
8092.3;-303
8100.0;-309
8107.7;-279
8115.4;-248
8123.1;-206
8130.8;-184
8138.5;-225
8146.2;-185
8153.8;-219
8161.5;-204
8169.2;-248
8176.9;-248
8184.6;-277
8192.3;-290
8200.0;-309
8207.7;-324
8215.4;-331
8223.1;-325
8230.8;-308
8238.5;-325
8246.2;-305
8253.8;-311
8261.5;-277
8269.2;-253
8276.9;-234
8284.6;-271
8292.3;-260
8300.0;-272
8307.7;-267
8315.4;-276
8323.1;-287
8330.8;-293
8338.5;-293
8346.2;-280
8353.8;-313
8361.5;-285
8369.2;-315
8376.9;-291
8384.6;-294
8392.3;-285
8400.0;-291
8407.7;-292
8415.4;-245
8423.1;-215
8430.8;-193
8438.5;-220
8446.2;-199
8453.8;-231
8461.5;-222
8469.2;-246
8476.9;-222
8484.6;-260
8492.3;-241
8500.0;-251
8507.7;-263
8515.4;-223
8523.1;-164
8530.8;-57
8538.5;44
8546.2;82
8553.8;-48
8561.5;-447
8569.2;-702
8576.9;-602
8584.6;-614
8592.3;-630
8600.0;-653
8607.7;-627
8615.4;-669
8623.1;-676
8630.8;-534
8638.5;-373
8646.2;-238
8653.8;-190
8661.5;-134
8669.2;-142
8676.9;-72
8684.6;-67
8692.3;-17
8700.0;21
8707.7;66
8715.4;131
8723.1;196
8730.8;286
8738.5;341
8746.2;425
8753.8;464
8761.5;489
8769.2;441
8776.9;421
8784.6;301
8792.3;231
8800.0;156
8807.7;69
8815.4;-9
8823.1;-95
8830.8;-133
8838.5;-204
8846.2;-219
8853.8;-280
8861.5;-293
8869.2;-335
8876.9;-313
8884.6;-325
8892.3;-316
8900.0;-305
8907.7;-287
8915.4;-267
8923.1;-291
8930.8;-263
8938.5;-283
8946.2;-291
8953.8;-314
8961.5;-299
8969.2;-333
8976.9;-324
8984.6;-353
8992.3;-348
9000.0;-366
9007.7;-379
9015.4;-380
9023.1;-390
9030.8;-364
9038.5;-389
9046.2;-370
9053.8;-388
9061.5;-357
9069.2;-371
9076.9;-347
9084.6;-359
9092.3;-356
9100.0;-362
9107.7;-356
9115.4;-345
9123.1;-347
9130.8;-347
9138.5;-362
9146.2;-361
9153.8;-372
9161.5;-356
9169.2;-388
9176.9;-361
9184.6;-381
9192.3;-353
9200.0;-372
9207.7;-366
9215.4;-359
9223.1;-368
9230.8;-355
9238.5;-375
9246.2;-353
9253.8;-390
9261.5;-377
9269.2;-407
9276.9;-400
9284.6;-408
9292.3;-346
9300.0;-346
9307.7;-351
9315.4;-338
9323.1;-359
9330.8;-335
9338.5;-370
9346.2;-360
9353.8;-368
9361.5;-325
9369.2;-354
9376.9;-335
9384.6;-359
9392.3;-349
9400.0;-366
9407.7;-371
9415.4;-374
9423.1;-381
9430.8;-388
9438.5;-386
9446.2;-352
9453.8;-343
9461.5;-270
9469.2;-219
9476.9;-90
9484.6;180
9492.3;646
9500.0;1061
9507.7;1346
9515.4;990
9523.1;247
9530.8;-208
9538.5;-343
9546.2;-297
9553.8;-383
9561.5;-401
9569.2;-452
9576.9;-457
9584.6;-493
9592.3;-476
9600.0;-484
9607.7;-480
9615.4;-451
9623.1;-423
9630.8;-402
9638.5;-406
9646.2;-364
9653.8;-396
9661.5;-382
9669.2;-420
9676.9;-386
9684.6;-399
9692.3;-382
9700.0;-396
9707.7;-390
9715.4;-378
9723.1;-381
9730.8;-360
9738.5;-396
9746.2;-383
9753.8;-403
9761.5;-393
9769.2;-411
9776.9;-392
9784.6;-404
9792.3;-403
9800.0;-411
9807.7;-406
9815.4;-384
9823.1;-370
9830.8;-350
9838.5;-359
9846.2;-354
9853.8;-390
9861.5;-367
9869.2;-387
9876.9;-366
9884.6;-383
9892.3;-355
9900.0;-360
9907.7;-351
9915.4;-354
9923.1;-337
9930.8;-309
9938.5;-335
9946.2;-328
9953.8;-375
9961.5;-355
9969.2;-397
9976.9;-388
9984.6;-426
9992.3;-396
10000.0;-344
10007.7;-320
10015.4;-334
10023.1;-336
10030.8;-330
10038.5;-359
10046.2;-356
10053.8;-390
10061.5;-360
10069.2;-391
10076.9;-355
10084.6;-373
10092.3;-350
10100.0;-356
10107.7;-365
10115.4;-369
10123.1;-373
10130.8;-348
10138.5;-363
10146.2;-326
10153.8;-334
10161.5;-300
10169.2;-306
10176.9;-210
10184.6;-130
10192.3;123
10200.0;523
10207.7;958
10215.4;1281
10223.1;1167
10230.8;549
10238.5;-5
10246.2;-212
10253.8;-289
10261.5;-328
10269.2;-410
10276.9;-405
10284.6;-418
10292.3;-408
10300.0;-423
10307.7;-427
10315.4;-425
10323.1;-436
10330.8;-437
10338.5;-455
10346.2;-412
10353.8;-400
10361.5;-351
10369.2;-350
10376.9;-322
10384.6;-337
10392.3;-314
10400.0;-319
10407.7;-298
10415.4;-294
10423.1;-271
10430.8;-248
10438.5;-266
10446.2;-267
10453.8;-322
10461.5;-345
10469.2;-384
10476.9;-369
10484.6;-406
10492.3;-385
10500.0;-388
10507.7;-353
10515.4;-365
10523.1;-381
10530.8;-367
10538.5;-392
10546.2;-368
10553.8;-394
10561.5;-361
10569.2;-376
10576.9;-352
10584.6;-370
10592.3;-367
10600.0;-372
10607.7;-379
10615.4;-375
10623.1;-375
10630.8;-364
10638.5;-383
10646.2;-353
10653.8;-371
10661.5;-352
10669.2;-374
10676.9;-362
10684.6;-363
10692.3;-337
10700.0;-304
10707.7;-202
10715.4;-90
10723.1;157
10730.8;550
10738.5;911
10746.2;1167
10753.8;885
10761.5;266
10769.2;-200
10776.9;-299
10784.6;-324
10792.3;-377
10800.0;-420
10807.7;-433
10815.4;-437
10823.1;-464
10830.8;-448
10838.5;-463
10846.2;-467
10853.8;-489
10861.5;-452
10869.2;-452
10876.9;-409
10884.6;-405
10892.3;-346
10900.0;-321
10907.7;-286
10915.4;-264
10923.1;-252
10930.8;-227
10938.5;-230
10946.2;-206
10953.8;-223
10961.5;-175
10969.2;-188
10976.9;-198
10984.6;-253
10992.3;-267
11000.0;-304
11007.7;-334
11015.4;-360
11023.1;-379
11030.8;-374
11038.5;-385
11046.2;-366
11053.8;-382
11061.5;-347
11069.2;-356
11076.9;-326
11084.6;-343
11092.3;-338
11100.0;-364
11107.7;-363
11115.4;-375
11123.1;-382
11130.8;-360
11138.5;-378
11146.2;-364
11153.8;-384
11161.5;-353
11169.2;-378
11176.9;-350
11184.6;-371
11192.3;-352
11200.0;-351
11207.7;-350
11215.4;-328
11223.1;-310
11230.8;-292
11238.5;-305
11246.2;-263
11253.8;-302
11261.5;-278
11269.2;-311
11276.9;-299
11284.6;-316
11292.3;-305
11300.0;-325
11307.7;-338
11315.4;-335
11323.1;-347
11330.8;-336
11338.5;-356
11346.2;-329
11353.8;-348
11361.5;-297
11369.2;-328
11376.9;-305
11384.6;-305
11392.3;-259
11400.0;-282
11407.7;-289
11415.4;-286
11423.1;-283
11430.8;-262
11438.5;-280
11446.2;-276
11453.8;-307
11461.5;-282
11469.2;-325
11476.9;-292
11484.6;-304
11492.3;-294
11500.0;-305
11507.7;-287
11515.4;-276
11523.1;-284
11530.8;-279
11538.5;-288
11546.2;-260
11553.8;-291
11561.5;-241
11569.2;-232
11576.9;-185
11584.6;-195
11592.3;-188
11600.0;-195
11607.7;-190
11615.4;-192
11623.1;-171
11630.8;-91
11638.5;16
11646.2;342
11653.8;742
11661.5;1159
11669.2;1465
11676.9;1346
11684.6;633
11692.3;58
11700.0;-267
11707.7;-268
11715.4;-285
11723.1;-351
11730.8;-368
11738.5;-380
11746.2;-335
11753.8;-350
11761.5;-331
11769.2;-355
11776.9;-344
11784.6;-372
11792.3;-358
11800.0;-373
11807.7;-360
11815.4;-363
11823.1;-361
11830.8;-341
11838.5;-355
11846.2;-322
11853.8;-338
11861.5;-322
11869.2;-341
11876.9;-326
11884.6;-346
11892.3;-328
11900.0;-304
11907.7;-271
11915.4;-257
11923.1;-236
11930.8;-230
11938.5;-250
11946.2;-248
11953.8;-275
11961.5;-263
11969.2;-305
11976.9;-302
11984.6;-339
11992.3;-319
12000.0;-355
12007.7;-343
12015.4;-349
12023.1;-356
12030.8;-346
12038.5;-372
12046.2;-344
12053.8;-367
12061.5;-321
12069.2;-332
12076.9;-297
12084.6;-292
12092.3;-273
12100.0;-271
12107.7;-265
12115.4;-238
12123.1;-234
12130.8;-231
12138.5;-243
12146.2;-236
12153.8;-258
12161.5;-242
12169.2;-268
12176.9;-266
12184.6;-290
12192.3;-281
12200.0;-303
12207.7;-291
12215.4;-318
12223.1;-338
12230.8;-339
12238.5;-336
12246.2;-291
12253.8;-307
12261.5;-270
12269.2;-296
12276.9;-284
12284.6;-290
12292.3;-266
12300.0;-275
12307.7;-269
12315.4;-264
12323.1;-270
12330.8;-257
12338.5;-295
12346.2;-289
12353.8;-310
12361.5;-288
12369.2;-318
12376.9;-289
12384.6;-291
12392.3;-230
12400.0;-145
12407.7;101
12415.4;486
12423.1;917
12430.8;1326
12438.5;1359
12446.2;827
12453.8;204
12461.5;-73
12469.2;-178
12476.9;-211
12484.6;-294
12492.3;-331
12500.0;-369
12507.7;-376
12515.4;-412
12523.1;-424
12530.8;-413
12538.5;-431
12546.2;-419
12553.8;-427
12561.5;-394
12569.2;-405
12576.9;-360
12584.6;-360
12592.3;-333
12600.0;-329
12607.7;-292
12615.4;-266
12623.1;-250
12630.8;-240
12638.5;-249
12646.2;-225
12653.8;-235
12661.5;-222
12669.2;-244
12676.9;-237
12684.6;-270
12692.3;-290
12700.0;-319
12707.7;-319
12715.4;-337
12723.1;-351
12730.8;-350
12738.5;-372
12746.2;-351
12753.8;-362
12761.5;-315
12769.2;-320
12776.9;-306
12784.6;-328
12792.3;-318
12800.0;-355
12807.7;-353
12815.4;-353
12823.1;-366
12830.8;-350
12838.5;-369
12846.2;-346
12853.8;-357
12861.5;-327
12869.2;-345
12876.9;-317
12884.6;-330
12892.3;-309
12900.0;-319
12907.7;-313
12915.4;-313
12923.1;-299
12930.8;-266
12938.5;-289
12946.2;-293
12953.8;-313
12961.5;-302
12969.2;-325
12976.9;-307
12984.6;-334
12992.3;-319
13000.0;-320
13007.7;-319
13015.4;-320
13023.1;-326
13030.8;-322
13038.5;-312
13046.2;-291
13053.8;-318
13061.5;-292
13069.2;-320
13076.9;-300
13084.6;-325
13092.3;-279
13100.0;-286
13107.7;-286
13115.4;-294
13123.1;-316
13130.8;-291
13138.5;-299
13146.2;-287
13153.8;-291
13161.5;-212
13169.2;-189
13176.9;-16
13184.6;271
13192.3;662
13200.0;1024
13207.7;1315
13215.4;1219
13223.1;621
13230.8;100
13238.5;-175
13246.2;-210
13253.8;-270
13261.5;-282
13269.2;-321
13276.9;-348
13284.6;-364
13292.3;-356
13300.0;-369
13307.7;-381
13315.4;-396
13323.1;-398
13330.8;-391
13338.5;-405
13346.2;-386
13353.8;-399
13361.5;-378
13369.2;-383
13376.9;-327
13384.6;-312
13392.3;-266
13400.0;-256
13407.7;-237
13415.4;-215
13423.1;-196
13430.8;-185
13438.5;-177
13446.2;-161
13453.8;-215
13461.5;-218
13469.2;-288
13476.9;-293
13484.6;-343
13492.3;-350
13500.0;-379
13507.7;-370
13515.4;-388
13523.1;-379
13530.8;-362
13538.5;-374
13546.2;-357
13553.8;-360
13561.5;-330
13569.2;-367
13576.9;-348
13584.6;-368
13592.3;-355
13600.0;-374
13607.7;-349
13615.4;-336
13623.1;-348
13630.8;-349
13638.5;-359
13646.2;-349
13653.8;-364
13661.5;-340
13669.2;-357
13676.9;-324
13684.6;-350
13692.3;-319
13700.0;-310
13707.7;-289
13715.4;-286
13723.1;-260
13730.8;-245
13738.5;-274
13746.2;-270
13753.8;-306
13761.5;-295
13769.2;-314
13776.9;-311
13784.6;-335
13792.3;-321
13800.0;-336
13807.7;-341
13815.4;-333
13823.1;-324
13830.8;-324
13838.5;-333
13846.2;-307
13853.8;-293
13861.5;-254
13869.2;-215
13876.9;-113
13884.6;48
13892.3;457
13900.0;927
13907.7;1386
13915.4;1525
13923.1;946
13930.8;160
13938.5;-236
13946.2;-215
13953.8;-253
13961.5;-298
13969.2;-364
13976.9;-358
13984.6;-382
13992.3;-378
14000.0;-378
14007.7;-356
14015.4;-352
14023.1;-349
14030.8;-301
14038.5;-300
14046.2;-274
14053.8;-295
14061.5;-251
14069.2;-275
14076.9;-243
14084.6;-243
14092.3;-234
14100.0;-247
14107.7;-230
14115.4;-211
14123.1;-214
14130.8;-214
14138.5;-222
14146.2;-224
14153.8;-271
14161.5;-251
14169.2;-290
14176.9;-282
14184.6;-321
14192.3;-271
14200.0;-275
14207.7;-290
14215.4;-302
14223.1;-308
14230.8;-301
14238.5;-328
14246.2;-317
14253.8;-348
14261.5;-329
14269.2;-364
14276.9;-330
14284.6;-347
14292.3;-332
14300.0;-328
14307.7;-306
14315.4;-300
14323.1;-281
14330.8;-263
14338.5;-266
14346.2;-227
14353.8;-218
14361.5;-193
14369.2;-228
14376.9;-247
14384.6;-261
14392.3;-243
14400.0;-262
14407.7;-260
14415.4;-266
14423.1;-287
14430.8;-269
14438.5;-231
14446.2;-170
14453.8;-93
14461.5;265
14469.2;702
14476.9;1164
14484.6;1435
14492.3;1130
14500.0;375
14507.7;-132
14515.4;-274
14523.1;-244
14530.8;-303
14538.5;-337
14546.2;-354
14553.8;-392
14561.5;-374
14569.2;-397
14576.9;-382
14584.6;-409
14592.3;-390
14600.0;-397
14607.7;-376
14615.4;-372
14623.1;-358
14630.8;-341
14638.5;-340
14646.2;-295
14653.8;-304
14661.5;-262
14669.2;-246
14676.9;-200
14684.6;-215
14692.3;-185
14700.0;-217
14707.7;-223
14715.4;-236
14723.1;-256
14730.8;-275
14738.5;-301
14746.2;-291
14753.8;-328
14761.5;-332
14769.2;-367
14776.9;-360
14784.6;-377
14792.3;-349
14800.0;-364
14807.7;-366
14815.4;-366
14823.1;-362
14830.8;-347
14838.5;-357
14846.2;-346
14853.8;-365
14861.5;-319
14869.2;-280
14876.9;-90
14884.6;307
14892.3;835
14900.0;1325
14907.7;1485
14915.4;991
14923.1;268
14930.8;-69
14938.5;-238
14946.2;-291
14953.8;-375
14961.5;-375
14969.2;-413
14976.9;-427
14984.6;-477
14992.3;-469
15000.0;-500
15007.7;-501
15015.4;-483
15023.1;-458
15030.8;-436
15038.5;-425
15046.2;-378
15053.8;-366
15061.5;-309
15069.2;-307
15076.9;-269
15084.6;-266
15092.3;-228
15100.0;-234
15107.7;-208
15115.4;-202
15123.1;-250
15130.8;-274
15138.5;-328
15146.2;-364
15153.8;-402
15161.5;-400
15169.2;-431
15176.9;-405
15184.6;-407
15192.3;-366
15200.0;-388
15207.7;-380
15215.4;-378
15223.1;-374
15230.8;-376
15238.5;-392
15246.2;-367
15253.8;-358
15261.5;-325
15269.2;-355
15276.9;-355
15284.6;-367
15292.3;-347
15300.0;-356
15307.7;-357
15315.4;-345
15323.1;-336
15330.8;-318
15338.5;-335
15346.2;-328
15353.8;-350
15361.5;-326
15369.2;-347
15376.9;-319
15384.6;-345
15392.3;-345
15400.0;-370
15407.7;-345
15415.4;-351
15423.1;-346
15430.8;-336
15438.5;-342
15446.2;-314
15453.8;-338
15461.5;-290
15469.2;-281
15476.9;-222
15484.6;-183
15492.3;0
15500.0;347
15507.7;776
15515.4;1169
15523.1;1314
15530.8;841
15538.5;148
15546.2;-175
15553.8;-262
15561.5;-256
15569.2;-344
15576.9;-359
15584.6;-390
15592.3;-377
15600.0;-404
15607.7;-398
15615.4;-414
15623.1;-425
15630.8;-447
15638.5;-468
15646.2;-452
15653.8;-484
15661.5;-449
15669.2;-467
15676.9;-445
15684.6;-448
15692.3;-410
15700.0;-395
15707.7;-361
15715.4;-333
15723.1;-311
15730.8;-273
15738.5;-261
15746.2;-229
15753.8;-240
15761.5;-235
15769.2;-288
15776.9;-307
15784.6;-361
15792.3;-366
15800.0;-390
15807.7;-389
15815.4;-413
15823.1;-408
15830.8;-389
15838.5;-393
15846.2;-361
15853.8;-363
15861.5;-345
15869.2;-356
15876.9;-322
15884.6;-326
15892.3;-291
15900.0;-316
15907.7;-297
15915.4;-313
15923.1;-317
15930.8;-322
15938.5;-323
15946.2;-316
15953.8;-336
15961.5;-314
15969.2;-332
15976.9;-311
15984.6;-323
15992.3;-319
16000.0;-322
16007.7;-304
16015.4;-310
16023.1;-299
16030.8;-286
16038.5;-288
16046.2;-271
16053.8;-288
16061.5;-236
16069.2;-192
16076.9;8
16084.6;402
16092.3;864
16100.0;1273
16107.7;1281
16115.4;604
16123.1;-64
16130.8;-296
16138.5;-276
16146.2;-276
16153.8;-336
16161.5;-331
16169.2;-362
16176.9;-335
16184.6;-371
16192.3;-364
16200.0;-379
16207.7;-385
16215.4;-371
16223.1;-377
16230.8;-367
16238.5;-381
16246.2;-363
16253.8;-367
16261.5;-335
16269.2;-343
16276.9;-312
16284.6;-311
16292.3;-278
16300.0;-264
16307.7;-222
16315.4;-195
16323.1;-182
16330.8;-187
16338.5;-225
16346.2;-214
16353.8;-251
16361.5;-248
16369.2;-296
16376.9;-296
16384.6;-336
16392.3;-337
16400.0;-370
16407.7;-363
16415.4;-379
16423.1;-380
16430.8;-366
16438.5;-359
16446.2;-340
16453.8;-338
16461.5;-300
16469.2;-319
16476.9;-284
16484.6;-288
16492.3;-276
16500.0;-287
16507.7;-280
16515.4;-271
16523.1;-289
16530.8;-274
16538.5;-296
16546.2;-281
16553.8;-291
16561.5;-281
16569.2;-311
16576.9;-299
16584.6;-317
16592.3;-320
16600.0;-326
16607.7;-309
16615.4;-330
16623.1;-304
16630.8;-280
16638.5;-277
16646.2;-261
16653.8;-264
16661.5;-245
16669.2;-266
16676.9;-251
16684.6;-282
16692.3;-267
16700.0;-277
16707.7;-268
16715.4;-291
16723.1;-287
16730.8;-280
16738.5;-301
16746.2;-288
16753.8;-307
16761.5;-289
16769.2;-313
16776.9;-289
16784.6;-295
16792.3;-275
16800.0;-288
16807.7;-267
16815.4;-274
16823.1;-285
16830.8;-263
16838.5;-283
16846.2;-270
16853.8;-275
16861.5;-245
16869.2;-257
16876.9;-265
16884.6;-282
16892.3;-279
16900.0;-295
16907.7;-291
16915.4;-311
16923.1;-295
16930.8;-284
16938.5;-288
16946.2;-258
16953.8;-257
16961.5;-239
16969.2;-250
16976.9;-229
16984.6;-254
16992.3;-236
17000.0;-263
17007.7;-248
17015.4;-252
17023.1;-245
17030.8;-254
17038.5;-262
17046.2;-252
17053.8;-269
17061.5;-250
17069.2;-281
17076.9;-250
17084.6;-267
17092.3;-204
17100.0;-147
17107.7;-3
17115.4;317
17123.1;714
17130.8;1119
17138.5;1417
17146.2;1195
17153.8;505
17161.5;-12
17169.2;-261
17176.9;-222
17184.6;-272
17192.3;-296
17200.0;-340
17207.7;-360
17215.4;-378
17223.1;-396
17230.8;-402
17238.5;-418
17246.2;-390
17253.8;-410
17261.5;-400
17269.2;-421
17276.9;-377
17284.6;-371
17292.3;-347
17300.0;-357
17307.7;-345
17315.4;-355
17323.1;-332
17330.8;-327
17338.5;-342
17346.2;-328
17353.8;-340
17361.5;-299
17369.2;-303
17376.9;-266
17384.6;-263
17392.3;-237
17400.0;-268
17407.7;-255
17415.4;-266
17423.1;-284
17430.8;-294
17438.5;-312
17446.2;-299
17453.8;-335
17461.5;-314
17469.2;-354
17476.9;-344
17484.6;-356
17492.3;-336
17500.0;-345
17507.7;-330
17515.4;-324
17523.1;-308
17530.8;-309
17538.5;-304
17546.2;-281
17553.8;-294
17561.5;-285
17569.2;-298
17576.9;-279
17584.6;-307
17592.3;-283
17600.0;-289
17607.7;-260
17615.4;-274
17623.1;-283
17630.8;-285
17638.5;-303
17646.2;-297
17653.8;-301
17661.5;-266
17669.2;-278
17676.9;-249
17684.6;-236
17692.3;-154
17700.0;-39
17707.7;237
17715.4;562
17723.1;922
17730.8;1172
17738.5;1093
17746.2;569
17753.8;54
17761.5;-172
17769.2;-267
17776.9;-282
17784.6;-343
17792.3;-323
17800.0;-362
17807.7;-376
17815.4;-380
17823.1;-388
17830.8;-389
17838.5;-402
17846.2;-389
17853.8;-398
17861.5;-370
17869.2;-376
17876.9;-345
17884.6;-351
17892.3;-311
17900.0;-318
17907.7;-306
17915.4;-305
17923.1;-303
17930.8;-293
17938.5;-287
17946.2;-259
17953.8;-241
17961.5;-200
17969.2;-215
17976.9;-184
17984.6;-245
17992.3;-251
18000.0;-290
18007.7;-306
18015.4;-328
18023.1;-336
18030.8;-343
18038.5;-362
18046.2;-343
18053.8;-367
18061.5;-347
18069.2;-378
18076.9;-371
18084.6;-391
18092.3;-378
18100.0;-419
18107.7;-386
18115.4;-417
18123.1;-420
18130.8;-416
18138.5;-400
18146.2;-339
18153.8;-331
18161.5;-311
18169.2;-321
18176.9;-312
18184.6;-341
18192.3;-310
18200.0;-317
18207.7;-301
18215.4;-320
18223.1;-310
18230.8;-303
18238.5;-319
18246.2;-309
18253.8;-329
18261.5;-314
18269.2;-335
18276.9;-310
18284.6;-327
18292.3;-290
18300.0;-312
18307.7;-318
18315.4;-319
18323.1;-313
18330.8;-262
18338.5;-254
18346.2;-239
18353.8;-245
18361.5;-184
18369.2;-150
18376.9;33
18384.6;360
18392.3;768
18400.0;1131
18407.7;1286
18415.4;833
18423.1;125
18430.8;-240
18438.5;-299
18446.2;-296
18453.8;-360
18461.5;-361
18469.2;-398
18476.9;-391
18484.6;-394
18492.3;-355
18500.0;-386
18507.7;-358
18515.4;-369
18523.1;-357
18530.8;-358
18538.5;-367
18546.2;-333
18553.8;-350
18561.5;-320
18569.2;-331
18576.9;-293
18584.6;-290
18592.3;-266
18600.0;-270
18607.7;-257
18615.4;-243
18623.1;-221
18630.8;-213
18638.5;-219
18646.2;-216
18653.8;-261
18661.5;-268
18669.2;-309
18676.9;-297
18684.6;-331
18692.3;-325
18700.0;-348
18707.7;-347
18715.4;-358
18723.1;-358
18730.8;-351
18738.5;-339
18746.2;-313
18753.8;-337
18761.5;-296
18769.2;-317
18776.9;-307
18784.6;-330
18792.3;-321
18800.0;-329
18807.7;-304
18815.4;-299
18823.1;-303
18830.8;-294
18838.5;-308
18846.2;-302
18853.8;-317
18861.5;-300
18869.2;-327
18876.9;-304
18884.6;-324
18892.3;-296
18900.0;-298
18907.7;-273
18915.4;-265
18923.1;-263
18930.8;-250
18938.5;-251
18946.2;-231
18953.8;-254
18961.5;-236
18969.2;-267
18976.9;-242
18984.6;-262
18992.3;-259
19000.0;-262
19007.7;-264
19015.4;-274
19023.1;-268
19030.8;-268
19038.5;-276
19046.2;-268
19053.8;-273
19061.5;-224
19069.2;-178
19076.9;-59
19084.6;170
19092.3;608
19100.0;1033
19107.7;1411
19115.4;1358
19123.1;692
19130.8;47
19138.5;-240
19146.2;-236
19153.8;-270
19161.5;-315
19169.2;-361
19176.9;-372
19184.6;-408
19192.3;-399
19200.0;-418
19207.7;-394
19215.4;-402
19223.1;-365
19230.8;-350
19238.5;-332
19246.2;-305
19253.8;-281
19261.5;-241
19269.2;-272
19276.9;-215
19284.6;-244
19292.3;-218
19300.0;-238
19307.7;-230
19315.4;-233
19323.1;-242
19330.8;-247
19338.5;-254
19346.2;-231
19353.8;-259
19361.5;-257
19369.2;-303
19376.9;-283
19384.6;-307
19392.3;-300
19400.0;-316
19407.7;-297
19415.4;-281
19423.1;-275
19430.8;-274
19438.5;-292
19446.2;-290
19453.8;-312
19461.5;-302
19469.2;-341
19476.9;-328
19484.6;-347
19492.3;-324
19500.0;-346
19507.7;-335
19515.4;-343
19523.1;-325
19530.8;-318
19538.5;-324
19546.2;-312
19553.8;-347
19561.5;-299
19569.2;-296
19576.9;-269
19584.6;-272
19592.3;-236
19600.0;-238
19607.7;-209
19615.4;-221
19623.1;-195
19630.8;-147
19638.5;-54
19646.2;257
19653.8;628
19661.5;1057
19669.2;1315
19676.9;1113
19684.6;433
19692.3;-57
19700.0;-269
19707.7;-261
19715.4;-337
19723.1;-367
19730.8;-377
19738.5;-387
19746.2;-386
19753.8;-388
19761.5;-367
19769.2;-378
19776.9;-348
19784.6;-373
19792.3;-351
19800.0;-363
19807.7;-360
19815.4;-356
19823.1;-338
19830.8;-330
19838.5;-302
19846.2;-283
19853.8;-287
19861.5;-241
19869.2;-254
19876.9;-221
19884.6;-226
19892.3;-216
19900.0;-243
19907.7;-235
19915.4;-258
19923.1;-268
19930.8;-285
19938.5;-304
19946.2;-297
19953.8;-326
19961.5;-317
19969.2;-361
19976.9;-338
19984.6;-360
19992.3;-340
20000.0;-347
20007.7;-329
20015.4;-335
20023.1;-331
20030.8;-319
20038.5;-300
20046.2;-285
20053.8;-301
20061.5;-277
20069.2;-300
20076.9;-270
20084.6;-289
20092.3;-269
20100.0;-279
20107.7;-298
20115.4;-319
20123.1;-322
20130.8;-319
20138.5;-316
20146.2;-325
20153.8;-342
20161.5;-314
20169.2;-347
20176.9;-318
20184.6;-327
20192.3;-286
20200.0;-301
20207.7;-291
20215.4;-299
20223.1;-295
20230.8;-288
20238.5;-285
20246.2;-257
20253.8;-259
20261.5;-225
20269.2;-253
20276.9;-213
20284.6;-226
20292.3;-137
20300.0;-49
20307.7;188
20315.4;529
20323.1;923
20330.8;1221
20338.5;1145
20346.2;556
20353.8;16
20361.5;-165
20369.2;-246
20376.9;-275
20384.6;-350
20392.3;-340
20400.0;-366
20407.7;-349
20415.4;-368
20423.1;-369
20430.8;-370
20438.5;-380
20446.2;-380
20453.8;-397
20461.5;-363
20469.2;-387
20476.9;-368
20484.6;-375
20492.3;-348
20500.0;-349
20507.7;-310
20515.4;-294
20523.1;-260
20530.8;-241
20538.5;-214
20546.2;-183
20553.8;-191
20561.5;-202
20569.2;-241
20576.9;-242
20584.6;-294
20592.3;-290
20600.0;-313
20607.7;-320
20615.4;-346
20623.1;-341
20630.8;-345
20638.5;-356
20646.2;-333
20653.8;-348
20661.5;-325
20669.2;-343
20676.9;-315
20684.6;-331
20692.3;-297
20700.0;-310
20707.7;-291
20715.4;-293
20723.1;-286
20730.8;-289
20738.5;-307
20746.2;-311
20753.8;-322
20761.5;-307
20769.2;-327
20776.9;-309
20784.6;-330
20792.3;-322
20800.0;-356
20807.7;-333
20815.4;-330
20823.1;-318
20830.8;-311
20838.5;-318
20846.2;-307
20853.8;-324
20861.5;-307
20869.2;-322
20876.9;-276
20884.6;-303
20892.3;-282
20900.0;-296
20907.7;-280
20915.4;-267
20923.1;-206
20930.8;-104
20938.5;182
20946.2;612
20953.8;980
20961.5;1238
20969.2;905
20976.9;257
20984.6;-162
20992.3;-240
21000.0;-289
21007.7;-337
21015.4;-367
21023.1;-388
21030.8;-400
21038.5;-418
21046.2;-403
21053.8;-431
21061.5;-419
21069.2;-438
21076.9;-410
21084.6;-427
21092.3;-393
21100.0;-390
21107.7;-353
21115.4;-346
21123.1;-338
21130.8;-317
21138.5;-301
21146.2;-275
21153.8;-256
21161.5;-244
21169.2;-248
21176.9;-210
21184.6;-243
21192.3;-245
21200.0;-282
21207.7;-289
21215.4;-341
21223.1;-355
21230.8;-375
21238.5;-398
21246.2;-391
21253.8;-397
21261.5;-370
21269.2;-379
21276.9;-363
21284.6;-377
21292.3;-347
21300.0;-349
21307.7;-325
21315.4;-337
21323.1;-342
21330.8;-336
21338.5;-347
21346.2;-335
21353.8;-361
21361.5;-335
21369.2;-332
21376.9;-327
21384.6;-349
21392.3;-325
21400.0;-331
21407.7;-319
21415.4;-326
21423.1;-329
21430.8;-324
21438.5;-320
21446.2;-313
21453.8;-307
21461.5;-279
21469.2;-299
21476.9;-275
21484.6;-307
21492.3;-280
21500.0;-290
21507.7;-283
21515.4;-288
21523.1;-293
21530.8;-291
21538.5;-289
21546.2;-273
21553.8;-297
21561.5;-258
21569.2;-295
21576.9;-267
21584.6;-287
21592.3;-261
21600.0;-277
21607.7;-265
21615.4;-278
21623.1;-250
21630.8;-196
21638.5;-119
21646.2;-7
21653.8;280
21661.5;725
21669.2;1116
21676.9;1420
21684.6;1005
21692.3;268
21700.0;-236
21707.7;-291
21715.4;-278
21723.1;-320
21730.8;-348
21738.5;-360
21746.2;-351
21753.8;-384
21761.5;-348
21769.2;-363
21776.9;-332
21784.6;-363
21792.3;-317
21800.0;-308
21807.7;-279
21815.4;-269
21823.1;-248
21830.8;-233
21838.5;-222
21846.2;-207
21853.8;-220
21861.5;-209
21869.2;-226
21876.9;-201
21884.6;-222
21892.3;-182
21900.0;-198
21907.7;-195
21915.4;-208
21923.1;-220
21930.8;-239
21938.5;-265
21946.2;-271
21953.8;-310
21961.5;-306
21969.2;-335
21976.9;-284
21984.6;-289
21992.3;-253
22000.0;-272
22007.7;-268
22015.4;-280
22023.1;-300
22030.8;-294
22038.5;-309
22046.2;-290
22053.8;-294
22061.5;-253
22069.2;-271
22076.9;-237
22084.6;-251
22092.3;-220
22100.0;-248
22107.7;-252
22115.4;-276
22123.1;-268
22130.8;-262
22138.5;-276
22146.2;-239
22153.8;-229
22161.5;-215
22169.2;-236
22176.9;-225
22184.6;-261
22192.3;-257
22200.0;-279
22207.7;-271
22215.4;-272
22223.1;-264
22230.8;-265
22238.5;-263
22246.2;-263
22253.8;-280
22261.5;-254
22269.2;-265
22276.9;-249
22284.6;-268
22292.3;-244
22300.0;-276
22307.7;-248
22315.4;-260
22323.1;-243
22330.8;-225
22338.5;-184
22346.2;-93
22353.8;111
22361.5;520
22369.2;877
22376.9;1284
22384.6;1351
22392.3;856
22400.0;231
22407.7;-120
22415.4;-202
22423.1;-203
22430.8;-259
22438.5;-309
22446.2;-313
22453.8;-347
22461.5;-337
22469.2;-363
22476.9;-358
22484.6;-368
22492.3;-355
22500.0;-381
22507.7;-370
22515.4;-381
22523.1;-366
22530.8;-376
22538.5;-363
22546.2;-313
22553.8;-265
22561.5;-199
22569.2;-208
22576.9;-167
22584.6;-181
22592.3;-164
22600.0;-177
22607.7;-166
22615.4;-176
22623.1;-182
22630.8;-202
22638.5;-240
22646.2;-260
22653.8;-279
22661.5;-286
22669.2;-327
22676.9;-336
22684.6;-365
22692.3;-346
22700.0;-350
22707.7;-332
22715.4;-344
22723.1;-339
22730.8;-336
22738.5;-341
22746.2;-318
22753.8;-296
22761.5;-268
22769.2;-299
22776.9;-275
22784.6;-287
22792.3;-261
22800.0;-278
22807.7;-268
22815.4;-287
22823.1;-291
22830.8;-288
22838.5;-281
22846.2;-260
22853.8;-253
22861.5;-221
22869.2;-227
22876.9;-192
22884.6;-203
22892.3;-147
22900.0;-25
22907.7;298
22915.4;680
22923.1;1081
22930.8;1209
22938.5;798
22946.2;250
22953.8;-69
22961.5;-148
22969.2;-217
22976.9;-258
22984.6;-297
22992.3;-293
23000.0;-319
23007.7;-310
23015.4;-323
23023.1;-317
23030.8;-328
23038.5;-342
23046.2;-337
23053.8;-351
23061.5;-337
23069.2;-356
23076.9;-320
23084.6;-324
23092.3;-268
23100.0;-272
23107.7;-260
23115.4;-256
23123.1;-211
23130.8;-164
23138.5;-156
23146.2;-139
23153.8;-150
23161.5;-137
23169.2;-176
23176.9;-181
23184.6;-233
23192.3;-256
23200.0;-292
23207.7;-302
23215.4;-324
23223.1;-326
23230.8;-327
23238.5;-327
23246.2;-317
23253.8;-339
23261.5;-311
23269.2;-333
23276.9;-317
23284.6;-345
23292.3;-315
23300.0;-310
23307.7;-284
23315.4;-276
23323.1;-282
23330.8;-281
23338.5;-275
23346.2;-259
23353.8;-267
23361.5;-230
23369.2;-204
23376.9;-9
23384.6;319
23392.3;712
23400.0;1106
23407.7;1319
23415.4;995
23423.1;343
23430.8;-66
23438.5;-229
23446.2;-267
23453.8;-310
23461.5;-324
23469.2;-393
23476.9;-386
23484.6;-407
23492.3;-363
23500.0;-393
23507.7;-367
23515.4;-389
23523.1;-384
23530.8;-386
23538.5;-402
23546.2;-379
23553.8;-384
23561.5;-340
23569.2;-349
23576.9;-309
23584.6;-312
23592.3;-263
23600.0;-253
23607.7;-220
23615.4;-221
23623.1;-204
23630.8;-187
23638.5;-200
23646.2;-208
23653.8;-252
23661.5;-268
23669.2;-301
23676.9;-307
23684.6;-334
23692.3;-314
23700.0;-339
23707.7;-326
23715.4;-335
23723.1;-326
23730.8;-327
23738.5;-320
23746.2;-325
23753.8;-327
23761.5;-287
23769.2;-308
23776.9;-293
23784.6;-318
23792.3;-305
23800.0;-325
23807.7;-308
23815.4;-314
23823.1;-300
23830.8;-299
23838.5;-290
23846.2;-276
23853.8;-289
23861.5;-260
23869.2;-270
23876.9;-229
23884.6;-266
23892.3;-253
23900.0;-249
23907.7;-221
23915.4;-258
23923.1;-248
23930.8;-268
23938.5;-268
23946.2;-263
23953.8;-282
23961.5;-262
23969.2;-291
23976.9;-259
23984.6;-284
23992.3;-258
24000.0;-271
24007.7;-227
24015.4;-211
24023.1;-154
24030.8;-51
24038.5;285
24046.2;727
24053.8;1121
24061.5;1416
24069.2;1073
24076.9;369
24084.6;-157
24092.3;-288
24100.0;-287
24107.7;-313
24115.4;-362
24123.1;-377
24130.8;-384
24138.5;-389
24146.2;-373
24153.8;-394
24161.5;-371
24169.2;-401
24176.9;-362
24184.6;-371
24192.3;-339
24200.0;-347
24207.7;-329
24215.4;-343
24223.1;-319
24230.8;-285
24238.5;-270
24246.2;-261
24253.8;-274
24261.5;-243
24269.2;-259
24276.9;-232
24284.6;-238
24292.3;-201
24300.0;-214
24307.7;-207
24315.4;-235
24323.1;-236
24330.8;-243
24338.5;-260
24346.2;-263
24353.8;-292
24361.5;-282
24369.2;-316
24376.9;-304
24384.6;-326
24392.3;-300
24400.0;-303
24407.7;-268
24415.4;-261
24423.1;-257
24430.8;-271
24438.5;-271
24446.2;-272
24453.8;-273
24461.5;-251
24469.2;-285
24476.9;-271
24484.6;-276
24492.3;-246
24500.0;-280
24507.7;-257
24515.4;-272
24523.1;-280
24530.8;-293
24538.5;-295
24546.2;-282
24553.8;-299
24561.5;-281
24569.2;-314
24576.9;-297
24584.6;-318
24592.3;-269
24600.0;-259
24607.7;-236
24615.4;-271
24623.1;-265
24630.8;-264
24638.5;-262
24646.2;-252
24653.8;-268
24661.5;-259
24669.2;-293
24676.9;-267
24684.6;-302
24692.3;-272
24700.0;-283
24707.7;-257
24715.4;-278
24723.1;-273
24730.8;-274
24738.5;-282
24746.2;-271
24753.8;-282
24761.5;-252
24769.2;-286
24776.9;-266
24784.6;-280
24792.3;-185
24800.0;-126
24807.7;40
24815.4;363
24823.1;783
24830.8;1202
24838.5;1475
24846.2;1182
24853.8;468
24861.5;-46
24869.2;-272
24876.9;-219
24884.6;-281
24892.3;-302
24900.0;-352
24907.7;-357
24915.4;-392
24923.1;-392
24930.8;-403
24938.5;-412
24946.2;-388
24953.8;-393
24961.5;-372
24969.2;-393
24976.9;-367
24984.6;-360
24992.3;-319
25000.0;-329
25007.7;-302
25015.4;-300
25023.1;-276
25030.8;-274
25038.5;-274
25046.2;-273
25053.8;-284
25061.5;-263
25069.2;-274
25076.9;-258
25084.6;-269
25092.3;-252
25100.0;-297
25107.7;-280
25115.4;-290
25123.1;-285
25130.8;-300
25138.5;-319
25146.2;-317
25153.8;-350
25161.5;-327
25169.2;-334
25176.9;-289
25184.6;-290
25192.3;-265
25200.0;-285
25207.7;-255
25215.4;-264
25223.1;-265
25230.8;-265
25238.5;-253
25246.2;-254
25253.8;-265
25261.5;-248
25269.2;-278
25276.9;-265
25284.6;-308
25292.3;-293
25300.0;-310
25307.7;-295
25315.4;-307
25323.1;-285
25330.8;-281
25338.5;-271
25346.2;-268
25353.8;-249
25361.5;-202
25369.2;-225
25376.9;-199
25384.6;-232
25392.3;-215
25400.0;-239
25407.7;-229
25415.4;-241
25423.1;-243
25430.8;-236
25438.5;-241
25446.2;-212
25453.8;-210
25461.5;-212
25469.2;-239
25476.9;-235
25484.6;-249
25492.3;-224
25500.0;-213
25507.7;-153
25515.4;-64
25523.1;223
25530.8;611
25538.5;1020
25546.2;1327
25553.8;1294
25561.5;758
25569.2;175
25576.9;-56
25584.6;-175
25592.3;-185
25600.0;-269
25607.7;-275
25615.4;-320
25623.1;-327
25630.8;-361
25638.5;-351
25646.2;-356
25653.8;-368
25661.5;-365
25669.2;-395
25676.9;-364
25684.6;-382
25692.3;-344
25700.0;-352
25707.7;-291
25715.4;-272
25723.1;-248
25730.8;-238
25738.5;-244
25746.2;-217
25753.8;-219
25761.5;-183
25769.2;-194
25776.9;-175
25784.6;-199
25792.3;-167
25800.0;-197
25807.7;-200
25815.4;-240
25823.1;-263
25830.8;-257
25838.5;-282
25846.2;-311
25853.8;-334
25861.5;-353
25869.2;-391
25876.9;-368
25884.6;-367
25892.3;-323
25900.0;-353
25907.7;-327
25915.4;-331
25923.1;-269
25930.8;-183
25938.5;113
25946.2;520
25953.8;959
25961.5;1279
25969.2;1149
25976.9;628
25984.6;44
25992.3;-150
26000.0;-265
26007.7;-289
26015.4;-362
26023.1;-377
26030.8;-416
26038.5;-428
26046.2;-450
26053.8;-474
26061.5;-456
26069.2;-448
26076.9;-415
26084.6;-445
26092.3;-392
26100.0;-415
26107.7;-399
26115.4;-403
26123.1;-375
26130.8;-362
26138.5;-327
26146.2;-291
26153.8;-292
26161.5;-267
26169.2;-258
26176.9;-216
26184.6;-240
26192.3;-214
26200.0;-254
26207.7;-237
26215.4;-285
26223.1;-300
26230.8;-331
26238.5;-350
26246.2;-334
26253.8;-355
26261.5;-347
26269.2;-362
26276.9;-342
26284.6;-348
26292.3;-319
26300.0;-344
26307.7;-333
26315.4;-348
26323.1;-318
26330.8;-329
26338.5;-329
26346.2;-342
26353.8;-354
26361.5;-356
26369.2;-392
26376.9;-379
26384.6;-401
26392.3;-380
26400.0;-417
26407.7;-416
26415.4;-434
26423.1;-407
26430.8;-375
26438.5;-359
26446.2;-343
26453.8;-356
26461.5;-352
26469.2;-367
26476.9;-343
26484.6;-376
26492.3;-347
26500.0;-353
26507.7;-349
26515.4;-360
26523.1;-351
26530.8;-368
26538.5;-379
26546.2;-363
26553.8;-385
26561.5;-363
26569.2;-389
26576.9;-369
26584.6;-391
26592.3;-371
26600.0;-381
26607.7;-361
26615.4;-348
26623.1;-316
26630.8;-324
26638.5;-307
26646.2;-297
26653.8;-332
26661.5;-322
26669.2;-346
26676.9;-324
26684.6;-360
26692.3;-336
26700.0;-360
26707.7;-328
26715.4;-336
26723.1;-320
26730.8;-337
26738.5;-328
26746.2;-301
26753.8;-317
26761.5;-301
26769.2;-332
26776.9;-309
26784.6;-301
26792.3;-249
26800.0;-217
26807.7;-141
26815.4;-19
26823.1;365
26830.8;824
26838.5;1244
26846.2;1455
26853.8;860
26861.5;92
26869.2;-306
26876.9;-304
26884.6;-297
26892.3;-332
26900.0;-379
26907.7;-380
26915.4;-399
26923.1;-393
26930.8;-407
26938.5;-435
26946.2;-432
26953.8;-431
26961.5;-409
26969.2;-434
26976.9;-407
26984.6;-422
26992.3;-382
27000.0;-397
27007.7;-344
27015.4;-334
27023.1;-302
27030.8;-285
27038.5;-283
27046.2;-271
27053.8;-283
27061.5;-251
27069.2;-250
27076.9;-213
27084.6;-236
27092.3;-208
27100.0;-244
27107.7;-253
27115.4;-275
27123.1;-262
27130.8;-286
27138.5;-275
27146.2;-285
27153.8;-299
27161.5;-273
27169.2;-280
27176.9;-241
27184.6;-256
27192.3;-226
27200.0;-258
27207.7;-229
27215.4;-259
27223.1;-243
27230.8;-254
27238.5;-266
27246.2;-249
27253.8;-262
27261.5;-260
27269.2;-270
27276.9;-235
27284.6;-224
27292.3;-187
27300.0;-195
27307.7;-172
27315.4;-200
27323.1;-212
27330.8;-223
27338.5;-237
27346.2;-235
27353.8;-253
27361.5;-245
27369.2;-266
27376.9;-256
27384.6;-294
27392.3;-281
27400.0;-301
27407.7;-286
27415.4;-292
27423.1;-286
27430.8;-277
27438.5;-261
27446.2;-207
27453.8;-191
27461.5;-159
27469.2;-89
27476.9;42
27484.6;295
27492.3;753
27500.0;1154
27507.7;1526
27515.4;1321
27523.1;525
27530.8;-91
27538.5;-247
27546.2;-234
27553.8;-316
27561.5;-355
27569.2;-398
27576.9;-390
27584.6;-411
27592.3;-369
27600.0;-371
27607.7;-337
27615.4;-356
27623.1;-339
27630.8;-338
27638.5;-305
27646.2;-256
27653.8;-269
27661.5;-247
27669.2;-260
27676.9;-232
27684.6;-265
27692.3;-258
27700.0;-281
27707.7;-269
27715.4;-271
27723.1;-249
27730.8;-246
27738.5;-251
27746.2;-251
27753.8;-274
27761.5;-283
27769.2;-307
27776.9;-297
27784.6;-338
27792.3;-329
27800.0;-312
27807.7;-293
27815.4;-316
27823.1;-303
27830.8;-305
27838.5;-318
27846.2;-312
27853.8;-317
27861.5;-290
27869.2;-314
27876.9;-274
27884.6;-288
27892.3;-262
27900.0;-281
27907.7;-273
27915.4;-268
27923.1;-274
27930.8;-271
27938.5;-250
27946.2;-218
27953.8;-184
27961.5;35
27969.2;359
27976.9;779
27984.6;1099
27992.3;1181
28000.0;644
28007.7;126
28015.4;-115
28023.1;-193
28030.8;-248
28038.5;-306
28046.2;-336
28053.8;-351
28061.5;-347
28069.2;-390
28076.9;-371
28084.6;-389
28092.3;-358
28100.0;-381
28107.7;-359
28115.4;-379
28123.1;-369
28130.8;-375
28138.5;-378
28146.2;-363
28153.8;-310
28161.5;-258
28169.2;-260
28176.9;-214
28184.6;-218
28192.3;-170
28200.0;-178
28207.7;-187
28215.4;-210
28223.1;-246
28230.8;-272
28238.5;-295
28246.2;-314
28253.8;-352
28261.5;-349
28269.2;-370
28276.9;-363
28284.6;-389
28292.3;-373
28300.0;-405
28307.7;-387
28315.4;-382
28323.1;-356
28330.8;-344
28338.5;-347
28346.2;-321
28353.8;-326
28361.5;-296
28369.2;-310
28376.9;-292
28384.6;-315
28392.3;-306
28400.0;-326
28407.7;-315
28415.4;-342
28423.1;-329
28430.8;-334
28438.5;-357
28446.2;-352
28453.8;-376
28461.5;-345
28469.2;-339
28476.9;-282
28484.6;-296
28492.3;-247
28500.0;-292
28507.7;-265
28515.4;-293
28523.1;-284
28530.8;-298
28538.5;-305
28546.2;-305
28553.8;-317
28561.5;-305
28569.2;-340
28576.9;-332
28584.6;-371
28592.3;-346
28600.0;-381
28607.7;-359
28615.4;-399
28623.1;-370
28630.8;-343
28638.5;-322
28646.2;-274
28653.8;-235
28661.5;-222
28669.2;-259
28676.9;-242
28684.6;-254
28692.3;-232
28700.0;-238
28707.7;-163
28715.4;-108
28723.1;106
28730.8;460
28738.5;841
28746.2;1199
28753.8;1167
28761.5;581
28769.2;-11
28776.9;-232
28784.6;-295
28792.3;-318
28800.0;-343
28807.7;-320
28815.4;-324
28823.1;-329
28830.8;-344
28838.5;-345
28846.2;-345
28853.8;-370
28861.5;-365
28869.2;-388
28876.9;-363
28884.6;-375
28892.3;-351
28900.0;-368
28907.7;-341
28915.4;-340
28923.1;-336
28930.8;-332
28938.5;-313
28946.2;-302
28953.8;-294
28961.5;-245
28969.2;-222
28976.9;-180
28984.6;-200
28992.3;-176
29000.0;-230
29007.7;-249
29015.4;-292
29023.1;-299
29030.8;-327
29038.5;-338
29046.2;-343
29053.8;-363
29061.5;-358
29069.2;-382
29076.9;-353
29084.6;-386
29092.3;-348
29100.0;-357
29107.7;-331
29115.4;-335
29123.1;-319
29130.8;-307
29138.5;-300
29146.2;-301
29153.8;-346
29161.5;-342
29169.2;-348
29176.9;-311
29184.6;-316
29192.3;-281
29200.0;-318
29207.7;-303
29215.4;-326
29223.1;-321
29230.8;-325
29238.5;-345
29246.2;-331
29253.8;-337
29261.5;-313
29269.2;-323
29276.9;-286
29284.6;-289
29292.3;-249
29300.0;-276
29307.7;-287
29315.4;-323
29323.1;-324
29330.8;-342
29338.5;-357
29346.2;-357
29353.8;-369
29361.5;-353
29369.2;-354
29376.9;-306
29384.6;-310
29392.3;-250
29400.0;-201
29407.7;-51
29415.4;236
29423.1;663
29430.8;1015
29438.5;1277
29446.2;1160
29453.8;542
29461.5;-16
29469.2;-252
29476.9;-210
29484.6;-237
29492.3;-255
29500.0;-318
29507.7;-346
29515.4;-387
29523.1;-411
29530.8;-411
29538.5;-402
29546.2;-409
29553.8;-414
29561.5;-399
29569.2;-418
29576.9;-387
29584.6;-396
29592.3;-366
29600.0;-374
29607.7;-353
29615.4;-335
29623.1;-308
29630.8;-279
29638.5;-246
29646.2;-198
29653.8;-186
29661.5;-155
29669.2;-185
29676.9;-201
29684.6;-266
29692.3;-283
29700.0;-337
29707.7;-329
29715.4;-347
29723.1;-349
29730.8;-363
29738.5;-360
29746.2;-373
29753.8;-394
29761.5;-376
29769.2;-401
29776.9;-357
29784.6;-368
29792.3;-311
29800.0;-307
29807.7;-286
29815.4;-311
29823.1;-289
29830.8;-301
29838.5;-303
29846.2;-293
29853.8;-317
29861.5;-310
29869.2;-350
29876.9;-323
29884.6;-331
29892.3;-320
29900.0;-348
29907.7;-320
29915.4;-337
29923.1;-332
29930.8;-331
29938.5;-309
29946.2;-288
29953.8;-305
29961.5;-281
29969.2;-290
29976.9;-270
29984.6;-312
29992.3;-305
30000.0;-340
30007.7;-327
30015.4;-346
30023.1;-335
30030.8;-346
30038.5;-348
30046.2;-336
30053.8;-369
30061.5;-346
30069.2;-350
30076.9;-300
30084.6;-301
30092.3;-239
30100.0;-178
30107.7;-30
30115.4;275
30123.1;709
30130.8;1140
30138.5;1448
30146.2;1329
30153.8;667
30161.5;63
30169.2;-242
30176.9;-232
30184.6;-288
30192.3;-331
30200.0;-393
30207.7;-414
30215.4;-451
30223.1;-457
30230.8;-465
30238.5;-482
30246.2;-486
30253.8;-474
30261.5;-442
30269.2;-407
30276.9;-362
30284.6;-359
30292.3;-307
30300.0;-319
30307.7;-285
30315.4;-305
30323.1;-277
30330.8;-271
30338.5;-274
30346.2;-271
30353.8;-290
30361.5;-270
30369.2;-295
30376.9;-269
30384.6;-309
30392.3;-311
30400.0;-360
30407.7;-369
30415.4;-405
30423.1;-415
30430.8;-415
30438.5;-404
30446.2;-366
30453.8;-362
30461.5;-319
30469.2;-328
30476.9;-323
30484.6;-342
30492.3;-337
30500.0;-373
30507.7;-347
30515.4;-372
30523.1;-355
30530.8;-366
30538.5;-364
30546.2;-357
30553.8;-380
30561.5;-363
30569.2;-389
30576.9;-369
30584.6;-398
30592.3;-379
30600.0;-404
30607.7;-382
30615.4;-384
30623.1;-336
30630.8;-288
30638.5;-280
30646.2;-265
30653.8;-283
30661.5;-277
30669.2;-318
30676.9;-305
30684.6;-328
30692.3;-315
30700.0;-354
30707.7;-345
30715.4;-372
30723.1;-364
30730.8;-375
30738.5;-381
30746.2;-370
30753.8;-393
30761.5;-376
30769.2;-399
30776.9;-378
30784.6;-400
30792.3;-360
30800.0;-368
30807.7;-330
30815.4;-331
30823.1;-301
30830.8;-280
30838.5;-272
30846.2;-279
30853.8;-304
30861.5;-291
30869.2;-327
30876.9;-319
30884.6;-356
30892.3;-338
30900.0;-358
30907.7;-354
30915.4;-365
30923.1;-363
30930.8;-374
30938.5;-370
30946.2;-356
30953.8;-359
30961.5;-320
30969.2;-328
30976.9;-307
30984.6;-321
30992.3;-278
31000.0;-279
31007.7;-251
31015.4;-277
31023.1;-283
31030.8;-274
31038.5;-248
31046.2;-190
31053.8;-141
31061.5;1
31069.2;286
31076.9;674
31084.6;1022
31092.3;1298
31100.0;989
31107.7;358
31115.4;-136
31123.1;-324
31130.8;-336
31138.5;-372
31146.2;-385
31153.8;-404
31161.5;-376
31169.2;-385
31176.9;-374
31184.6;-398
31192.3;-366
31200.0;-391
31207.7;-377
31215.4;-416
31223.1;-396
31230.8;-367
31238.5;-358
31246.2;-343
31253.8;-338
31261.5;-321
31269.2;-330
31276.9;-291
31284.6;-300
31292.3;-274
31300.0;-273
31307.7;-244
31315.4;-258
31323.1;-242
31330.8;-234
31338.5;-236
31346.2;-242
31353.8;-249
31361.5;-241
31369.2;-305
31376.9;-298
31384.6;-324
31392.3;-289
31400.0;-321
31407.7;-319
31415.4;-336
31423.1;-327
31430.8;-339
31438.5;-348
31446.2;-358
31453.8;-361
31461.5;-348
31469.2;-374
31476.9;-350
31484.6;-363
31492.3;-355
31500.0;-373
31507.7;-351
31515.4;-371
31523.1;-370
31530.8;-386
31538.5;-383
31546.2;-370
31553.8;-350
31561.5;-304
31569.2;-327
31576.9;-297
31584.6;-280
31592.3;-225
31600.0;-259
31607.7;-258
31615.4;-273
31623.1;-263
31630.8;-270
31638.5;-277
31646.2;-271
31653.8;-292
31661.5;-272
31669.2;-307
31676.9;-293
31684.6;-307
31692.3;-291
31700.0;-307
31707.7;-278
31715.4;-300
31723.1;-295
31730.8;-302
31738.5;-279
31746.2;-230
31753.8;-58
31761.5;341
31769.2;783
31776.9;1226
31784.6;1318
31792.3;881
31800.0;196
31807.7;-120
31815.4;-161
31823.1;-179
31830.8;-252
31838.5;-289
31846.2;-316
31853.8;-344
31861.5;-342
31869.2;-368
31876.9;-337
31884.6;-368
31892.3;-346
31900.0;-368
31907.7;-370
31915.4;-384
31923.1;-385
31930.8;-392
31938.5;-386
31946.2;-355
31953.8;-329
31961.5;-271
31969.2;-278
31976.9;-199
31984.6;-195
31992.3;-142
32000.0;-158
32007.7;-136
32015.4;-142
32023.1;-150
32030.8;-198
32038.5;-226
32046.2;-250
32053.8;-295
32061.5;-317
32069.2;-362
32076.9;-359
32084.6;-382
32092.3;-359
32100.0;-393
32107.7;-377
32115.4;-371
32123.1;-316
32130.8;-312
32138.5;-301
32146.2;-291
32153.8;-300
32161.5;-286
32169.2;-300
32176.9;-272
32184.6;-282
32192.3;-249
32200.0;-266
32207.7;-246
32215.4;-277
32223.1;-298
32230.8;-297
32238.5;-311
32246.2;-303
32253.8;-306
32261.5;-277
32269.2;-278
32276.9;-245
32284.6;-248
32292.3;-216
32300.0;-236
32307.7;-224
32315.4;-232
32323.1;-241
32330.8;-286
32338.5;-296
32346.2;-282
32353.8;-280
32361.5;-239
32369.2;-267
32376.9;-255
32384.6;-282
32392.3;-259
32400.0;-294
32407.7;-279
32415.4;-294
32423.1;-249
32430.8;-238
32438.5;-221
32446.2;-218
32453.8;-231
32461.5;-194
32469.2;-202
32476.9;-179
32484.6;-210
32492.3;-195
32500.0;-240
32507.7;-234
32515.4;-256
32523.1;-234
32530.8;-214
32538.5;-202
32546.2;-196
32553.8;-200
32561.5;-172
32569.2;-131
32576.9;-25
32584.6;148
32592.3;578
32600.0;1035
32607.7;1488
32615.4;1529
32623.1;862
32630.8;150
32638.5;-165
32646.2;-153
32653.8;-198
32661.5;-260
32669.2;-309
32676.9;-308
32684.6;-330
32692.3;-304
32700.0;-312
32707.7;-279
32715.4;-284
32723.1;-248
32730.8;-237
32738.5;-235
32746.2;-219
32753.8;-214
32761.5;-184
32769.2;-178
32776.9;-139
32784.6;-158
32792.3;-138
32800.0;-161
32807.7;-150
32815.4;-160
32823.1;-146
32830.8;-152
32838.5;-159
32846.2;-133
32853.8;-138
32861.5;-128
32869.2;-163
32876.9;-165
32884.6;-209
32892.3;-215
32900.0;-240
32907.7;-224
32915.4;-239
32923.1;-236
32930.8;-243
32938.5;-236
32946.2;-232
32953.8;-256
32961.5;-255
32969.2;-273
32976.9;-240
32984.6;-265
32992.3;-242
33000.0;-255
33007.7;-212
33015.4;-191
33023.1;-154
33030.8;-147
33038.5;-160
33046.2;-137
33053.8;-142
33061.5;-123
33069.2;-160
33076.9;-142
33084.6;-165
33092.3;-144
33100.0;-138
33107.7;-65
33115.4;104
33123.1;511
33130.8;961
33138.5;1378
33146.2;1394
33153.8;695
33161.5;49
33169.2;-210
33176.9;-158
33184.6;-229
33192.3;-259
33200.0;-295
33207.7;-288
33215.4;-319
33223.1;-308
33230.8;-321
33238.5;-317
33246.2;-313
33253.8;-322
33261.5;-309
33269.2;-341
33276.9;-302
33284.6;-309
33292.3;-267
33300.0;-267
33307.7;-217
33315.4;-227
33323.1;-198
33330.8;-158
33338.5;-124
33346.2;-97
33353.8;-117
33361.5;-110
33369.2;-170
33376.9;-191
33384.6;-250
33392.3;-245
33400.0;-291
33407.7;-296
33415.4;-334
33423.1;-347
33430.8;-354
33438.5;-349
33446.2;-342
33453.8;-337
33461.5;-312
33469.2;-333
33476.9;-309
33484.6;-315
33492.3;-293
33500.0;-325
33507.7;-294
33515.4;-319
33523.1;-303
33530.8;-281
33538.5;-252
33546.2;-230
33553.8;-243
33561.5;-250
33569.2;-283
33576.9;-271
33584.6;-294
33592.3;-271
33600.0;-293
33607.7;-276
33615.4;-245
33623.1;-175
33630.8;-67
33638.5;212
33646.2;615
33653.8;1010
33661.5;1330
33669.2;1094
33676.9;416
33684.6;-93
33692.3;-210
33700.0;-275
33707.7;-319
33715.4;-389
33723.1;-405
33730.8;-395
33738.5;-394
33746.2;-393
33753.8;-413
33761.5;-392
33769.2;-397
33776.9;-367
33784.6;-375
33792.3;-347
33800.0;-356
33807.7;-314
33815.4;-318
33823.1;-285
33830.8;-277
33838.5;-266
33846.2;-249
33853.8;-271
33861.5;-240
33869.2;-241
33876.9;-233
33884.6;-269
33892.3;-273
33900.0;-308
33907.7;-290
33915.4;-315
33923.1;-276
33930.8;-292
33938.5;-303
33946.2;-322
33953.8;-354
33961.5;-340
33969.2;-356
33976.9;-336
33984.6;-357
33992.3;-352
34000.0;-381
34007.7;-358
34015.4;-382
34023.1;-373
34030.8;-367
34038.5;-365
34046.2;-362
34053.8;-354
34061.5;-330
34069.2;-342
34076.9;-323
34084.6;-357
34092.3;-325
34100.0;-303
34107.7;-270
34115.4;-296
34123.1;-289
34130.8;-299
34138.5;-315
34146.2;-312
34153.8;-341
34161.5;-324
34169.2;-359
34176.9;-355
34184.6;-377
34192.3;-343
34200.0;-360
34207.7;-348
34215.4;-370
34223.1;-367
34230.8;-374
34238.5;-375
34246.2;-342
34253.8;-309
34261.5;-275
34269.2;-286
34276.9;-278
34284.6;-305
34292.3;-270
34300.0;-299
34307.7;-281
34315.4;-304
34323.1;-289
34330.8;-306
34338.5;-306
34346.2;-308
34353.8;-315
34361.5;-298
34369.2;-323
34376.9;-284
34384.6;-312
34392.3;-241
34400.0;-199
34407.7;16
34415.4;370
34423.1;818
34430.8;1239
34438.5;1356
34446.2;894
34453.8;259
34461.5;-64
34469.2;-188
34476.9;-207
34484.6;-312
34492.3;-330
34500.0;-381
34507.7;-370
34515.4;-411
34523.1;-388
34530.8;-405
34538.5;-424
34546.2;-421
34553.8;-424
34561.5;-391
34569.2;-400
34576.9;-363
34584.6;-376
34592.3;-321
34600.0;-307
34607.7;-270
34615.4;-267
34623.1;-239
34630.8;-232
34638.5;-224
34646.2;-198
34653.8;-199
34661.5;-174
34669.2;-203
34676.9;-186
34684.6;-233
34692.3;-239
34700.0;-276
34707.7;-287
34715.4;-319
34723.1;-331
34730.8;-334
34738.5;-335
34746.2;-327
34753.8;-334
34761.5;-317
34769.2;-336
34776.9;-323
34784.6;-359
34792.3;-332
34800.0;-355
34807.7;-336
34815.4;-341
34823.1;-326
34830.8;-324
34838.5;-331
34846.2;-321
34853.8;-317
34861.5;-304
34869.2;-331
34876.9;-305
34884.6;-325
34892.3;-303
34900.0;-315
34907.7;-303
34915.4;-305
34923.1;-303
34930.8;-302
34938.5;-282
34946.2;-274
34953.8;-283
34961.5;-267
34969.2;-290
34976.9;-281
34984.6;-322
34992.3;-302
35000.0;-337
35007.7;-312
35015.4;-305
35023.1;-293
35030.8;-300
35038.5;-309
35046.2;-317
35053.8;-337
35061.5;-326
35069.2;-350
35076.9;-331
35084.6;-347
35092.3;-319
35100.0;-325
35107.7;-297
35115.4;-315
35123.1;-307
35130.8;-299
35138.5;-298
35146.2;-289
35153.8;-293
35161.5;-283
35169.2;-299
35176.9;-281
35184.6;-305
35192.3;-268
35200.0;-285
35207.7;-269
35215.4;-290
35223.1;-281
35230.8;-279
35238.5;-264
35246.2;-261
35253.8;-239
35261.5;-165
35269.2;-126
35276.9;145
35284.6;509
35292.3;968
35300.0;1327
35307.7;1439
35315.4;869
35323.1;181
35330.8;-226
35338.5;-305
35346.2;-258
35353.8;-340
35361.5;-337
35369.2;-365
35376.9;-348
35384.6;-359
35392.3;-337
35400.0;-368
35407.7;-363
35415.4;-367
35423.1;-352
35430.8;-356
35438.5;-363
35446.2;-365
35453.8;-359
35461.5;-340
35469.2;-353
35476.9;-293
35484.6;-289
35492.3;-258
35500.0;-257
35507.7;-218
35515.4;-231
35523.1;-205
35530.8;-207
35538.5;-193
35546.2;-178
35553.8;-193
35561.5;-198
35569.2;-250
35576.9;-248
35584.6;-295
35592.3;-293
35600.0;-329
35607.7;-330
35615.4;-363
35623.1;-361
35630.8;-374
35638.5;-370
35646.2;-361
35653.8;-351
35661.5;-322
35669.2;-344
35676.9;-306
35684.6;-321
35692.3;-286
35700.0;-291
35707.7;-254
35715.4;-268
35723.1;-256
35730.8;-257
35738.5;-267
35746.2;-289
35753.8;-308
35761.5;-287
35769.2;-319
35776.9;-294
35784.6;-330
35792.3;-306
35800.0;-324
35807.7;-305
35815.4;-321
35823.1;-315
35830.8;-320
35838.5;-340
35846.2;-328
35853.8;-336
35861.5;-312
35869.2;-318
35876.9;-302
35884.6;-312
35892.3;-298
35900.0;-326
35907.7;-318
35915.4;-354
35923.1;-343
35930.8;-350
35938.5;-355
35946.2;-344
35953.8;-349
35961.5;-331
35969.2;-347
35976.9;-324
35984.6;-338
35992.3;-330
36000.0;-357
36007.7;-333
36015.4;-346
36023.1;-324
36030.8;-323
36038.5;-332
36046.2;-339
36053.8;-351
36061.5;-339
36069.2;-346
36076.9;-323
36084.6;-347
36092.3;-323
36100.0;-352
36107.7;-320
36115.4;-320
36123.1;-295
36130.8;-298
36138.5;-291
36146.2;-289
36153.8;-289
36161.5;-260
36169.2;-252
36176.9;-176
36184.6;-128
36192.3;51
36200.0;357
36207.7;767
36215.4;1123
36223.1;1409
36230.8;1277
36238.5;703
36246.2;111
36253.8;-256
36261.5;-302
36269.2;-305
36276.9;-322
36284.6;-353
36292.3;-339
36300.0;-379
36307.7;-381
36315.4;-399
36323.1;-385
36330.8;-385
36338.5;-384
36346.2;-374
36353.8;-382
36361.5;-365
36369.2;-388
36376.9;-367
36384.6;-387
36392.3;-345
36400.0;-376
36407.7;-337
36415.4;-328
36423.1;-302
36430.8;-292
36438.5;-270
36446.2;-240
36453.8;-244
36461.5;-213
36469.2;-209
36476.9;-181
36484.6;-218
36492.3;-223
36500.0;-272
36507.7;-287
36515.4;-332
36523.1;-340
36530.8;-354
36538.5;-360
36546.2;-350
36553.8;-374
36561.5;-369
36569.2;-394
36576.9;-380
36584.6;-379
36592.3;-348
36600.0;-363
36607.7;-334
36615.4;-341
36623.1;-293
36630.8;-284
36638.5;-273
36646.2;-284
36653.8;-308
36661.5;-287
36669.2;-308
36676.9;-286
36684.6;-324
36692.3;-308
36700.0;-332
36707.7;-311
36715.4;-329
36723.1;-307
36730.8;-301
36738.5;-307
36746.2;-305
36753.8;-313
36761.5;-298
36769.2;-310
36776.9;-290
36784.6;-290
36792.3;-249
36800.0;-270
36807.7;-252
36815.4;-295
36823.1;-282
36830.8;-289
36838.5;-277
36846.2;-277
36853.8;-271
36861.5;-246
36869.2;-271
36876.9;-235
36884.6;-249
36892.3;-195
36900.0;-169
36907.7;-53
36915.4;206
36923.1;611
36930.8;1019
36938.5;1315
36946.2;1211
36953.8;620
36961.5;128
36969.2;-134
36976.9;-190
36984.6;-267
36992.3;-306
37000.0;-359
37007.7;-354
37015.4;-387
37023.1;-382
37030.8;-395
37038.5;-391
37046.2;-381
37053.8;-384
37061.5;-361
37069.2;-359
37076.9;-319
37084.6;-333
37092.3;-279
37100.0;-266
37107.7;-202
37115.4;-184
37123.1;-180
37130.8;-178
37138.5;-159
37146.2;-142
37153.8;-147
37161.5;-125
37169.2;-151
37176.9;-139
37184.6;-186
37192.3;-203
37200.0;-255
37207.7;-271
37215.4;-304
37223.1;-305
37230.8;-302
37238.5;-301
37246.2;-302
37253.8;-305
37261.5;-278
37269.2;-282
37276.9;-265
37284.6;-302
37292.3;-298
37300.0;-327
37307.7;-301
37315.4;-326
37323.1;-306
37330.8;-312
37338.5;-330
37346.2;-323
37353.8;-347
37361.5;-326
37369.2;-340
37376.9;-321
37384.6;-349
37392.3;-307
37400.0;-307
37407.7;-287
37415.4;-282
37423.1;-247
37430.8;-247
37438.5;-247
37446.2;-241
37453.8;-252
37461.5;-233
37469.2;-250
37476.9;-237
37484.6;-267
37492.3;-249
37500.0;-267
37507.7;-255
37515.4;-272
37523.1;-276
37530.8;-275
37538.5;-276
37546.2;-258
37553.8;-251
37561.5;-225
37569.2;-217
37576.9;-158
37584.6;-115
37592.3;-24
37600.0;160
37607.7;541
37615.4;951
37623.1;1346
37630.8;1411
37638.5;850
37646.2;193
37653.8;-148
37661.5;-186
37669.2;-209
37676.9;-256
37684.6;-321
37692.3;-331
37700.0;-375
37707.7;-375
37715.4;-395
37723.1;-354
37730.8;-320
37738.5;-299
37746.2;-277
37753.8;-273
37761.5;-245
37769.2;-246
37776.9;-218
37784.6;-221
37792.3;-195
37800.0;-182
37807.7;-136
37815.4;-122
37823.1;-94
37830.8;-93
37838.5;-91
37846.2;-76
37853.8;-93
37861.5;-90
37869.2;-132
37876.9;-136
37884.6;-161
37892.3;-166
37900.0;-197
37907.7;-181
37915.4;-216
37923.1;-219
37930.8;-223
37938.5;-235
37946.2;-221
37953.8;-237
37961.5;-209
37969.2;-217
37976.9;-160
37984.6;-137
37992.3;103
38000.0;485
38007.7;899
38015.4;1301
38023.1;1336
38030.8;900
38038.5;268
38046.2;-29
38053.8;-155
38061.5;-189
38069.2;-268
38076.9;-268
38084.6;-318
38092.3;-312
38100.0;-343
38107.7;-329
38115.4;-348
38123.1;-335
38130.8;-345
38138.5;-334
38146.2;-337
38153.8;-339
38161.5;-288
38169.2;-311
38176.9;-273
38184.6;-286
38192.3;-227
38200.0;-219
38207.7;-183
38215.4;-180
38223.1;-141
38230.8;-120
38238.5;-95
38246.2;-73
38253.8;-81
38261.5;-85
38269.2;-125
38276.9;-128
38284.6;-180
38292.3;-177
38300.0;-212
38307.7;-203
38315.4;-225
38323.1;-229
38330.8;-237
38338.5;-246
38346.2;-219
38353.8;-209
38361.5;-191
38369.2;-210
38376.9;-189
38384.6;-217
38392.3;-178
38400.0;-188
38407.7;-172
38415.4;-191
38423.1;-193
38430.8;-188
38438.5;-196
38446.2;-197
38453.8;-211
38461.5;-206
38469.2;-231
38476.9;-218
38484.6;-261
38492.3;-232
38500.0;-272
38507.7;-239
38515.4;-249
38523.1;-220
38530.8;-236
38538.5;-236
38546.2;-231
38553.8;-256
38561.5;-233
38569.2;-273
38576.9;-233
38584.6;-251
38592.3;-227
38600.0;-254
38607.7;-229
38615.4;-238
38623.1;-227
38630.8;-250
38638.5;-252
38646.2;-243
38653.8;-265
38661.5;-264
38669.2;-282
38676.9;-258
38684.6;-278
38692.3;-234
38700.0;-243
38707.7;-212
38715.4;-207
38723.1;-165
38730.8;-110
38738.5;-9
38746.2;261
38753.8;734
38761.5;1226
38769.2;1556
38776.9;1199
38784.6;372
38792.3;-109
38800.0;-244
38807.7;-216
38815.4;-295
38823.1;-316
38830.8;-358
38838.5;-348
38846.2;-343
38853.8;-364
38861.5;-347
38869.2;-371
38876.9;-354
38884.6;-374
38892.3;-328
38900.0;-329
38907.7;-293
38915.4;-301
38923.1;-276
38930.8;-285
38938.5;-282
38946.2;-280
38953.8;-284
38961.5;-262
38969.2;-268
38976.9;-251
38984.6;-255
38992.3;-226
39000.0;-248
39007.7;-233
39015.4;-272
39023.1;-287
39030.8;-313
39038.5;-323
39046.2;-319
39053.8;-334
39061.5;-310
39069.2;-324
39076.9;-288
39084.6;-301
39092.3;-264
39100.0;-267
39107.7;-249
39115.4;-256
39123.1;-242
39130.8;-250
39138.5;-250
39146.2;-242
39153.8;-249
39161.5;-242
39169.2;-254
39176.9;-235
39184.6;-264
39192.3;-244
39200.0;-263
39207.7;-239
39215.4;-265
39223.1;-241
39230.8;-237
39238.5;-204
39246.2;-148
39253.8;-67
39261.5;211
39269.2;597
39276.9;1018
39284.6;1228
39292.3;968
39300.0;348
39307.7;1
39315.4;-205
39323.1;-266
39330.8;-338
39338.5;-376
39346.2;-387
39353.8;-390
39361.5;-377
39369.2;-400
39376.9;-393
39384.6;-408
39392.3;-373
39400.0;-395
39407.7;-353
39415.4;-347
39423.1;-308
39430.8;-287
39438.5;-269
39446.2;-261
39453.8;-261
39461.5;-230
39469.2;-236
39476.9;-205
39484.6;-212
39492.3;-181
39500.0;-200
39507.7;-195
39515.4;-237
39523.1;-256
39530.8;-289
39538.5;-316
39546.2;-309
39553.8;-313
39561.5;-289
39569.2;-279
39576.9;-260
39584.6;-292
39592.3;-275
39600.0;-303
39607.7;-282
39615.4;-297
39623.1;-282
39630.8;-292
39638.5;-296
39646.2;-295
39653.8;-309
39661.5;-297
39669.2;-319
39676.9;-284
39684.6;-312
39692.3;-293
39700.0;-313
39707.7;-291
39715.4;-279
39723.1;-259
39730.8;-261
39738.5;-257
39746.2;-270
39753.8;-296
39761.5;-288
39769.2;-300
39776.9;-274
39784.6;-295
39792.3;-285
39800.0;-313
39807.7;-273
39815.4;-272
39823.1;-259
39830.8;-255
39838.5;-221
39846.2;-165
39853.8;-36
39861.5;309
39869.2;732
39876.9;1175
39884.6;1355
39892.3;978
39900.0;249
39907.7;-113
39915.4;-215
39923.1;-243
39930.8;-300
39938.5;-339
39946.2;-364
39953.8;-382
39961.5;-380
39969.2;-391
39976.9;-368
39984.6;-391
39992.3;-343
40000.0;-343
40007.7;-303
40015.4;-307
40023.1;-288
40030.8;-301
40038.5;-286
40046.2;-265
40053.8;-258
40061.5;-246
40069.2;-254
40076.9;-227
40084.6;-245
40092.3;-194
40100.0;-211
40107.7;-181
40115.4;-215
40123.1;-224
40130.8;-237
40138.5;-263
40146.2;-262
40153.8;-279
40161.5;-271
40169.2;-296
40176.9;-278
40184.6;-307
40192.3;-274
40200.0;-307
40207.7;-288
40215.4;-304
40223.1;-294
40230.8;-302
40238.5;-296
40246.2;-282
40253.8;-299
40261.5;-267
40269.2;-282
40276.9;-245
40284.6;-267
40292.3;-251
40300.0;-269
40307.7;-246
40315.4;-266
40323.1;-250
40330.8;-254
40338.5;-240
40346.2;-252
40353.8;-286
40361.5;-270
40369.2;-297
40376.9;-264
40384.6;-285
40392.3;-263
40400.0;-296
40407.7;-269
40415.4;-282
40423.1;-255
40430.8;-270
40438.5;-278
40446.2;-288
40453.8;-286
40461.5;-249
40469.2;-261
40476.9;-224
40484.6;-246
40492.3;-223
40500.0;-254
40507.7;-231
40515.4;-254
40523.1;-243
40530.8;-257
40538.5;-261
40546.2;-247
40553.8;-259
40561.5;-245
40569.2;-268
40576.9;-234
40584.6;-265
40592.3;-232
40600.0;-246
40607.7;-234
40615.4;-240
40623.1;-213
40630.8;-210
40638.5;-202
40646.2;-180
40653.8;-169
40661.5;-132
40669.2;-98
40676.9;13
40684.6;252
40692.3;713
40700.0;1124
40707.7;1482
40715.4;1374
40723.1;693
40730.8;55
40738.5;-242
40746.2;-227
40753.8;-239
40761.5;-269
40769.2;-291
40776.9;-288
40784.6;-334
40792.3;-332
40800.0;-354
40807.7;-327
40815.4;-342
40823.1;-309
40830.8;-298
40838.5;-291
40846.2;-283
40853.8;-298
40861.5;-277
40869.2;-270
40876.9;-243
40884.6;-267
40892.3;-245
40900.0;-256
40907.7;-232
40915.4;-244
40923.1;-227
40930.8;-213
40938.5;-198
40946.2;-187
40953.8;-196
40961.5;-185
40969.2;-213
40976.9;-192
40984.6;-230
40992.3;-217
41000.0;-245
41007.7;-242
41015.4;-254
41023.1;-247
41030.8;-263
41038.5;-267
41046.2;-274
41053.8;-288
41061.5;-277
41069.2;-290
41076.9;-268
41084.6;-281
41092.3;-247
41100.0;-249
41107.7;-243
41115.4;-248
41123.1;-237
41130.8;-233
41138.5;-221
41146.2;-190
41153.8;-183
41161.5;-183
41169.2;-204
41176.9;-187
41184.6;-198
41192.3;-182
41200.0;-219
41207.7;-193
41215.4;-222
41223.1;-206
41230.8;-227
41238.5;-238
41246.2;-233
41253.8;-239
41261.5;-231
41269.2;-241
41276.9;-214
41284.6;-229
41292.3;-195
41300.0;-156
41307.7;-47
41315.4;174
41323.1;590
41330.8;1007
41338.5;1381
41346.2;1409
41353.8;827
41361.5;142
41369.2;-211
41376.9;-195
41384.6;-227
41392.3;-260
41400.0;-320
41407.7;-317
41415.4;-340
41423.1;-338
41430.8;-346
41438.5;-352
41446.2;-362
41453.8;-373
41461.5;-351
41469.2;-361
41476.9;-337
41484.6;-366
41492.3;-329
41500.0;-361
41507.7;-329
41515.4;-322
41523.1;-289
41530.8;-263
41538.5;-249
41546.2;-218
41553.8;-221
41561.5;-178
41569.2;-195
41576.9;-167
41584.6;-189
41592.3;-200
41600.0;-244
41607.7;-243
41615.4;-273
41623.1;-274
41630.8;-293
41638.5;-310
41646.2;-324
41653.8;-339
41661.5;-337
41669.2;-367
41676.9;-352
41684.6;-353
41692.3;-333
41700.0;-328
41707.7;-298
41715.4;-320
41723.1;-308
41730.8;-307
41738.5;-295
41746.2;-292
41753.8;-302
41761.5;-285
41769.2;-302
41776.9;-271
41784.6;-302
41792.3;-275
41800.0;-312
41807.7;-292
41815.4;-305
41823.1;-287
41830.8;-300
41838.5;-298
41846.2;-303
41853.8;-299
41861.5;-251
41869.2;-280
41876.9;-266
41884.6;-288
41892.3;-266
41900.0;-299
41907.7;-285
41915.4;-308
41923.1;-300
41930.8;-304
41938.5;-309
41946.2;-303
41953.8;-317
41961.5;-308
41969.2;-325
41976.9;-291
41984.6;-295
41992.3;-274
42000.0;-277
42007.7;-272
42015.4;-288
42023.1;-242
42030.8;-235
42038.5;-250
42046.2;-250
42053.8;-251
42061.5;-197
42069.2;-168
42076.9;-7
42084.6;313
42092.3;757
42100.0;1163
42107.7;1390
42115.4;1079
42123.1;420
42130.8;-27
42138.5;-185
42146.2;-218
42153.8;-272
42161.5;-290
42169.2;-325
42176.9;-299
42184.6;-336
42192.3;-328
42200.0;-361
42207.7;-344
42215.4;-360
42223.1;-343
42230.8;-336
42238.5;-326
42246.2;-329
42253.8;-339
42261.5;-322
42269.2;-334
42276.9;-300
42284.6;-320
42292.3;-262
42300.0;-259
42307.7;-227
42315.4;-230
42323.1;-209
42330.8;-191
42338.5;-182
42346.2;-153
42353.8;-165
42361.5;-168
42369.2;-209
42376.9;-207
42384.6;-253
42392.3;-244
42400.0;-276
42407.7;-269
42415.4;-296
42423.1;-308
42430.8;-317
42438.5;-311
42446.2;-298
42453.8;-312
42461.5;-288
42469.2;-300
42476.9;-281
42484.6;-320
42492.3;-298
42500.0;-308
42507.7;-292
42515.4;-297
42523.1;-262
42530.8;-240
42538.5;-205
42546.2;-159
42553.8;-109
42561.5;21
42569.2;295
42576.9;690
42584.6;1082
42592.3;1353
42600.0;1091
42607.7;448
42615.4;-30
42623.1;-179
42630.8;-221
42638.5;-251
42646.2;-294
42653.8;-338
42661.5;-338
42669.2;-374
42676.9;-367
42684.6;-388
42692.3;-385
42700.0;-404
42707.7;-360
42715.4;-343
42723.1;-317
42730.8;-303
42738.5;-282
42746.2;-242
42753.8;-231
42761.5;-193
42769.2;-203
42776.9;-162
42784.6;-163
42792.3;-118
42800.0;-118
42807.7;-90
42815.4;-104
42823.1;-105
42830.8;-135
42838.5;-168
42846.2;-196
42853.8;-232
42861.5;-226
42869.2;-273
42876.9;-252
42884.6;-268
42892.3;-232
42900.0;-235
42907.7;-228
42915.4;-230
42923.1;-215
42930.8;-222
42938.5;-219
42946.2;-213
42953.8;-202
42961.5;-178
42969.2;-178
42976.9;-112
42984.6;-44
42992.3;259
43000.0;580
43007.7;1002
43015.4;1300
43023.1;1206
43030.8;613
43038.5;36
43046.2;-175
43053.8;-208
43061.5;-213
43069.2;-278
43076.9;-284
43084.6;-341
43092.3;-342
43100.0;-374
43107.7;-351
43115.4;-376
43123.1;-381
43130.8;-379
43138.5;-385
43146.2;-378
43153.8;-390
43161.5;-374
43169.2;-380
43176.9;-325
43184.6;-324
43192.3;-293
43200.0;-286
43207.7;-226
43215.4;-216
43223.1;-169
43230.8;-157
43238.5;-137
43246.2;-107
43253.8;-123
43261.5;-109
43269.2;-163
43276.9;-160
43284.6;-208
43292.3;-209
43300.0;-239
43307.7;-238
43315.4;-255
43323.1;-260
43330.8;-249
43338.5;-259
43346.2;-228
43353.8;-230
43361.5;-156
43369.2;-90
43376.9;179
43384.6;572
43392.3;1006
43400.0;1361
43407.7;1394
43415.4;961
43423.1;347
43430.8;1
43438.5;-124
43446.2;-182
43453.8;-258
43461.5;-273
43469.2;-329
43476.9;-334
43484.6;-370
43492.3;-357
43500.0;-388
43507.7;-374
43515.4;-398
43523.1;-377
43530.8;-381
43538.5;-377
43546.2;-359
43553.8;-333
43561.5;-298
43569.2;-321
43576.9;-286
43584.6;-294
43592.3;-264
43600.0;-261
43607.7;-208
43615.4;-207
43623.1;-174
43630.8;-194
43638.5;-180
43646.2;-172
43653.8;-201
43661.5;-209
43669.2;-240
43676.9;-221
43684.6;-260
43692.3;-231
43700.0;-273
43707.7;-242
43715.4;-252
43723.1;-223
43730.8;-206
43738.5;-213
43746.2;-201
43753.8;-213
43761.5;-198
43769.2;-218
43776.9;-201
43784.6;-236
43792.3;-212
43800.0;-236
43807.7;-219
43815.4;-223
43823.1;-190
43830.8;-144
43838.5;-61
43846.2;142
43853.8;441
43861.5;816
43869.2;1124
43876.9;1310
43884.6;890
43892.3;266
43900.0;-134
43907.7;-220
43915.4;-245
43923.1;-302
43930.8;-323
43938.5;-345
43946.2;-339
43953.8;-363
43961.5;-357
43969.2;-398
43976.9;-390
43984.6;-419
43992.3;-389
44000.0;-406
44007.7;-379
44015.4;-391
44023.1;-378
44030.8;-365
44038.5;-370
44046.2;-353
44053.8;-354
44061.5;-334
44069.2;-352
44076.9;-333
44084.6;-341
44092.3;-288
44100.0;-269
44107.7;-244
44115.4;-245
44123.1;-237
44130.8;-252
44138.5;-266
44146.2;-267
44153.8;-287
44161.5;-286
44169.2;-292
44176.9;-266
44184.6;-300
44192.3;-267
44200.0;-277
44207.7;-258
44215.4;-272
44223.1;-259
44230.8;-254
44238.5;-270
44246.2;-265
44253.8;-283
44261.5;-268
44269.2;-275
44276.9;-249
44284.6;-262
44292.3;-227
44300.0;-244
44307.7;-235
44315.4;-241
44323.1;-244
44330.8;-237
44338.5;-244
44346.2;-245
44353.8;-247
44361.5;-237
44369.2;-259
44376.9;-238
44384.6;-263
44392.3;-238
44400.0;-264
44407.7;-254
44415.4;-268
44423.1;-259
44430.8;-257
44438.5;-228
44446.2;-167
44453.8;-137
44461.5;-12
44469.2;242
44476.9;623
44484.6;1004
44492.3;1318
44500.0;1064
44507.7;435
44515.4;-37
44523.1;-183
44530.8;-227
44538.5;-291
44546.2;-311
44553.8;-351
44561.5;-345
44569.2;-387
44576.9;-369
44584.6;-401
44592.3;-384
44600.0;-407
44607.7;-377
44615.4;-377
44623.1;-320
44630.8;-311
44638.5;-288
44646.2;-278
44653.8;-293
44661.5;-273
44669.2;-303
44676.9;-278
44684.6;-288
44692.3;-242
44700.0;-255
44707.7;-223
44715.4;-219
44723.1;-228
44730.8;-248
44738.5;-271
44746.2;-265
44753.8;-295
44761.5;-282
44769.2;-290
44776.9;-253
44784.6;-284
44792.3;-257
44800.0;-267
44807.7;-241
44815.4;-258
44823.1;-263
44830.8;-269
44838.5;-286
44846.2;-281
44853.8;-288
44861.5;-278
44869.2;-301
44876.9;-266
44884.6;-291
44892.3;-267
44900.0;-287
44907.7;-266
44915.4;-276
44923.1;-243
44930.8;-231
44938.5;-246
44946.2;-239
44953.8;-259
44961.5;-266
44969.2;-294
44976.9;-260
44984.6;-259
44992.3;-232
45000.0;-258
45007.7;-241
45015.4;-268
45023.1;-242
45030.8;-210
45038.5;-166
45046.2;-5
45053.8;332
45061.5;774
45069.2;1153
45076.9;1261
45084.6;775
45092.3;216
45100.0;-96
45107.7;-179
45115.4;-246
45123.1;-291
45130.8;-326
45138.5;-360
45146.2;-356
45153.8;-362
45161.5;-359
45169.2;-387
45176.9;-367
45184.6;-388
45192.3;-358
45200.0;-384
45207.7;-368
45215.4;-369
45223.1;-332
45230.8;-331
45238.5;-336
45246.2;-306
45253.8;-328
45261.5;-291
45269.2;-312
45276.9;-262
45284.6;-285
45292.3;-257
45300.0;-284
45307.7;-266
45315.4;-286
45323.1;-273
45330.8;-263
45338.5;-265
45346.2;-271
45353.8;-297
45361.5;-284
45369.2;-302
45376.9;-274
45384.6;-309
45392.3;-282
45400.0;-313
45407.7;-297
45415.4;-304
45423.1;-294
45430.8;-298
45438.5;-288
45446.2;-301
45453.8;-306
45461.5;-292
45469.2;-323
45476.9;-308
45484.6;-306
45492.3;-243
45500.0;-248
45507.7;-212
45515.4;-235
45523.1;-229
45530.8;-234
45538.5;-239
45546.2;-234
45553.8;-264
45561.5;-248
45569.2;-267
45576.9;-252
45584.6;-269
45592.3;-248
45600.0;-264
45607.7;-243
45615.4;-246
45623.1;-228
45630.8;-228
45638.5;-222
45646.2;-146
45653.8;-18
45661.5;328
45669.2;713
45676.9;1148
45684.6;1329
45692.3;937
45700.0;244
45707.7;-71
45715.4;-141
45723.1;-156
45730.8;-213
45738.5;-252
45746.2;-266
45753.8;-297
45761.5;-295
45769.2;-301
45776.9;-272
45784.6;-309
45792.3;-277
45800.0;-271
45807.7;-242
45815.4;-246
45823.1;-216
45830.8;-196
45838.5;-201
45846.2;-190
45853.8;-201
45861.5;-192
45869.2;-199
45876.9;-178
45884.6;-196
45892.3;-158
45900.0;-170
45907.7;-158
45915.4;-172
45923.1;-179
45930.8;-203
45938.5;-222
45946.2;-231
45953.8;-250
45961.5;-239
45969.2;-259
45976.9;-241
45984.6;-253
45992.3;-218
46000.0;-221
46007.7;-196
46015.4;-205
46023.1;-186
46030.8;-197
46038.5;-189
46046.2;-183
46053.8;-207
46061.5;-171
46069.2;-190
46076.9;-175
46084.6;-196
46092.3;-172
46100.0;-185
46107.7;-179
46115.4;-168
46123.1;-174
46130.8;-174
46138.5;-177
46146.2;-171
46153.8;-204
46161.5;-185
46169.2;-216
46176.9;-192
46184.6;-203
46192.3;-152
46200.0;-140
46207.7;-105
46215.4;-85
46223.1;-2
46230.8;184
46238.5;566
46246.2;996
46253.8;1340
46261.5;1296
46269.2;657
46276.9;111
46284.6;-145
46292.3;-113
46300.0;-176
46307.7;-205
46315.4;-252
46323.1;-285
46330.8;-298
46338.5;-303
46346.2;-299
46353.8;-297
46361.5;-265
46369.2;-289
46376.9;-252
46384.6;-272
46392.3;-239
46400.0;-236
46407.7;-195
46415.4;-201
46423.1;-188
46430.8;-175
46438.5;-188
46446.2;-177
46453.8;-177
46461.5;-158
46469.2;-185
46476.9;-179
46484.6;-193
46492.3;-174
46500.0;-215
46507.7;-202
46515.4;-225
46523.1;-206
46530.8;-218
46538.5;-218
46546.2;-211
46553.8;-220
46561.5;-206
46569.2;-216
46576.9;-201
46584.6;-233
46592.3;-225
46600.0;-248
46607.7;-241
46615.4;-259
46623.1;-251
46630.8;-263
46638.5;-246
46646.2;-250
46653.8;-249
46661.5;-242
46669.2;-283
46676.9;-266
46684.6;-280
46692.3;-232
46700.0;-232
46707.7;-194
46715.4;-197
46723.1;-170
46730.8;-171
46738.5;-170
46746.2;-179
46753.8;-199
46761.5;-190
46769.2;-231
46776.9;-209
46784.6;-234
46792.3;-214
46800.0;-234
46807.7;-224
46815.4;-247
46823.1;-238
46830.8;-237
46838.5;-257
46846.2;-234
46853.8;-247
46861.5;-211
46869.2;-199
46876.9;-178
46884.6;-195
46892.3;-173
46900.0;-196
46907.7;-183
46915.4;-206
46923.1;-219
46930.8;-236
46938.5;-230
46946.2;-220
46953.8;-251
46961.5;-233
46969.2;-253
46976.9;-229
46984.6;-262
46992.3;-233
47000.0;-249
47007.7;-245
47015.4;-253
47023.1;-242
47030.8;-235
47038.5;-227
47046.2;-188
47053.8;-186
47061.5;-170
47069.2;-198
47076.9;-175
47084.6;-185
47092.3;-172
47100.0;-187
47107.7;-171
47115.4;-196
47123.1;-184
47130.8;-183
47138.5;-194
47146.2;-175
47153.8;-204
47161.5;-187
47169.2;-219
47176.9;-197
47184.6;-213
47192.3;-179
47200.0;-178
47207.7;-126
47215.4;-98
47223.1;9
47230.8;297
47238.5;671
47246.2;1039
47253.8;1326
47261.5;1230
47269.2;640
47276.9;157
47284.6;-88
47292.3;-87
47300.0;-153
47307.7;-198
47315.4;-245
47323.1;-261
47330.8;-282
47338.5;-299
47346.2;-304
47353.8;-325
47361.5;-302
47369.2;-338
47376.9;-305
47384.6;-330
47392.3;-281
47400.0;-293
47407.7;-280
47415.4;-278
47423.1;-238
47430.8;-209
47438.5;-207
47446.2;-193
47453.8;-207
47461.5;-182
47469.2;-199
47476.9;-169
47484.6;-180
47492.3;-142
47500.0;-155
47507.7;-139
47515.4;-149
47523.1;-137
47530.8;-150
47538.5;-165
47546.2;-180
47553.8;-214
47561.5;-222
47569.2;-245
47576.9;-248
47584.6;-269
47592.3;-256
47600.0;-280
47607.7;-243
47615.4;-234
47623.1;-209
47630.8;-210
47638.5;-214
47646.2;-207
47653.8;-214
47661.5;-198
47669.2;-224
47676.9;-211
47684.6;-228
47692.3;-200
47700.0;-222
47707.7;-217
47715.4;-223
47723.1;-226
47730.8;-242
47738.5;-247
47746.2;-245
47753.8;-256
47761.5;-251
47769.2;-284
47776.9;-262
47784.6;-288
47792.3;-266
47800.0;-265
47807.7;-219
47815.4;-237
47823.1;-215
47830.8;-211
47838.5;-208
47846.2;-212
47853.8;-207
47861.5;-193
47869.2;-235
47876.9;-230
47884.6;-261
47892.3;-227
47900.0;-243
47907.7;-224
47915.4;-232
47923.1;-209
47930.8;-199
47938.5;-195
47946.2;-154
47953.8;-106
47961.5;84
47969.2;400
47976.9;806
47984.6;1127
47992.3;1303
48000.0;920
48007.7;370
48015.4;23
48023.1;-115
48030.8;-184
48038.5;-265
48046.2;-304
48053.8;-345
48061.5;-347
48069.2;-380
48076.9;-360
48084.6;-389
48092.3;-369
48100.0;-394
48107.7;-371
48115.4;-367
48123.1;-351
48130.8;-339
48138.5;-309
48146.2;-248
48153.8;-214
48161.5;-159
48169.2;-169
48176.9;-134
48184.6;-166
48192.3;-141
48200.0;-170
48207.7;-150
48215.4;-156
48223.1;-149
48230.8;-167
48238.5;-191
48246.2;-204
48253.8;-245
48261.5;-250
48269.2;-286
48276.9;-273
48284.6;-293
48292.3;-271
48300.0;-286
48307.7;-261
48315.4;-262
48323.1;-255
48330.8;-260
48338.5;-261
48346.2;-246
48353.8;-249
48361.5;-239
48369.2;-251
48376.9;-235
48384.6;-267
48392.3;-261
48400.0;-298
48407.7;-277
48415.4;-290
48423.1;-278
48430.8;-275
48438.5;-265
48446.2;-261
48453.8;-268
48461.5;-227
48469.2;-234
48476.9;-188
48484.6;-212
48492.3;-199
48500.0;-231
48507.7;-226
48515.4;-238
48523.1;-234
48530.8;-232
48538.5;-229
48546.2;-226
48553.8;-227
48561.5;-208
48569.2;-229
48576.9;-203
48584.6;-231
48592.3;-201
48600.0;-231
48607.7;-212
48615.4;-219
48623.1;-215
48630.8;-196
48638.5;-194
48646.2;-194
48653.8;-194
48661.5;-195
48669.2;-222
48676.9;-197
48684.6;-211
48692.3;-189
48700.0;-210
48707.7;-174
48715.4;-162
48723.1;-157
48730.8;-172
48738.5;-184
48746.2;-169
48753.8;-180
48761.5;-159
48769.2;-149
48776.9;-98
48784.6;-59
48792.3;82
48800.0;371
48807.7;781
48815.4;1126
48823.1;1429
48830.8;1218
48838.5;576
48846.2;57
48853.8;-155
48861.5;-107
48869.2;-174
48876.9;-196
48884.6;-263
48892.3;-248
48900.0;-293
48907.7;-261
48915.4;-258
48923.1;-248
48930.8;-247
48938.5;-254
48946.2;-240
48953.8;-249
48961.5;-219
48969.2;-244
48976.9;-201
48984.6;-212
48992.3;-193
49000.0;-202
49007.7;-173
49015.4;-180
49023.1;-167
49030.8;-159
49038.5;-163
49046.2;-133
49053.8;-144
49061.5;-120
49069.2;-138
49076.9;-128
49084.6;-155
49092.3;-140
49100.0;-160
49107.7;-154
49115.4;-175
49123.1;-170
49130.8;-166
49138.5;-174
49146.2;-167
49153.8;-192
49161.5;-195
49169.2;-220
49176.9;-205
49184.6;-235
49192.3;-211
49200.0;-231
49207.7;-209
49215.4;-212
49223.1;-198
49230.8;-188
49238.5;-195
49246.2;-175
49253.8;-184
49261.5;-187
49269.2;-207
49276.9;-176
49284.6;-172
49292.3;-149
49300.0;-164
49307.7;-150
49315.4;-171
49323.1;-171
49330.8;-177
49338.5;-177
49346.2;-184
49353.8;-196
49361.5;-187
49369.2;-224
49376.9;-194
49384.6;-204
49392.3;-184
49400.0;-200
49407.7;-179
49415.4;-198
49423.1;-188
49430.8;-206
49438.5;-196
49446.2;-179
49453.8;-187
49461.5;-176
49469.2;-197
49476.9;-168
49484.6;-155
49492.3;-102
49500.0;-88
49507.7;1
49515.4;94
49523.1;370
49530.8;741
49538.5;1113
49546.2;1404
49553.8;1295
49561.5;797
49569.2;229
49576.9;-20
49584.6;-71
49592.3;-93
49600.0;-173
49607.7;-188
49615.4;-219
49623.1;-240
49630.8;-251
49638.5;-274
49646.2;-273
49653.8;-309
49661.5;-289
49669.2;-319
49676.9;-276
49684.6;-262
49692.3;-229
49700.0;-231
49707.7;-191
49715.4;-184
49723.1;-156
49730.8;-133
49738.5;-119
49746.2;-114
49753.8;-106
49761.5;-79
49769.2;-81
49776.9;-59
49784.6;-96
49792.3;-73
49800.0;-111
49807.7;-118
49815.4;-166
49823.1;-192
49830.8;-207
49838.5;-237
49846.2;-229
49853.8;-232
49861.5;-206
49869.2;-238
49876.9;-202
49884.6;-220
49892.3;-187
49900.0;-215
49907.7;-196
49915.4;-205
49923.1;-198
49930.8;-189
49938.5;-181
49946.2;-162
49953.8;-180
49961.5;-161
49969.2;-194
49976.9;-179
49984.6;-206
49992.3;-188
50000.0;-221
50007.7;-201
50015.4;-209
50023.1;-189
50030.8;-185
50038.5;-179
50046.2;-161
50053.8;-166
50061.5;-140
50069.2;-114
50076.9;1
50084.6;219
50092.3;617
50100.0;980
50107.7;1267
50115.4;990
50123.1;366
50130.8;-7
50138.5;-133
50146.2;-179
50153.8;-256
50161.5;-303
50169.2;-354
50176.9;-346
50184.6;-342
50192.3;-299
50200.0;-323
50207.7;-305
50215.4;-319
50223.1;-279
50230.8;-266
50238.5;-266
50246.2;-233
50253.8;-222
50261.5;-190
50269.2;-195
50276.9;-162
50284.6;-173
50292.3;-144
50300.0;-157
50307.7;-129
50315.4;-142
50323.1;-141
50330.8;-132
50338.5;-166
50346.2;-177
50353.8;-227
50361.5;-237
50369.2;-261
50376.9;-234
50384.6;-263
50392.3;-247
50400.0;-263
50407.7;-252
50415.4;-249
50423.1;-253
50430.8;-254
50438.5;-276
50446.2;-271
50453.8;-288
50461.5;-265
50469.2;-303
50476.9;-292
50484.6;-294
50492.3;-273
50500.0;-303
50507.7;-280
50515.4;-280
50523.1;-265
50530.8;-257
50538.5;-256
50546.2;-256
50553.8;-255
50561.5;-213
50569.2;-250
50576.9;-228
50584.6;-225
50592.3;-182
50600.0;-211
50607.7;-196
50615.4;-206
50623.1;-195
50630.8;-200
50638.5;-202
50646.2;-188
50653.8;-218
50661.5;-202
50669.2;-201
50676.9;-163
50684.6;-175
50692.3;-147
50700.0;-118
50707.7;-63
50715.4;101
50723.1;459
50730.8;883
50738.5;1247
50746.2;1310
50753.8;698
50761.5;115
50769.2;-109
50776.9;-135
50784.6;-204
50792.3;-234
50800.0;-276
50807.7;-287
50815.4;-302
50823.1;-293
50830.8;-298
50838.5;-303
50846.2;-290
50853.8;-299
50861.5;-277
50869.2;-301
50876.9;-268
50884.6;-273
50892.3;-225
50900.0;-237
50907.7;-225
50915.4;-216
50923.1;-193
50930.8;-137
50938.5;-102
50946.2;-90
50953.8;-91
50961.5;-47
50969.2;-75
50976.9;-80
50984.6;-126
50992.3;-141
51000.0;-182
51007.7;-181
51015.4;-215
51023.1;-226
51030.8;-233
51038.5;-226
51046.2;-225
51053.8;-240
51061.5;-229
51069.2;-251
51076.9;-235
51084.6;-255
51092.3;-231
51100.0;-231
51107.7;-195
51115.4;-200
51123.1;-191
51130.8;-172
51138.5;-178
51146.2;-118
51153.8;4
51161.5;372
51169.2;728
51176.9;1146
51184.6;1393
51192.3;1113
51200.0;338
51207.7;-95
51215.4;-169
51223.1;-195
51230.8;-233
51238.5;-274
51246.2;-294
51253.8;-325
51261.5;-317
51269.2;-351
51276.9;-334
51284.6;-333
51292.3;-269
51300.0;-284
51307.7;-244
51315.4;-232
51323.1;-223
51330.8;-196
51338.5;-196
51346.2;-184
51353.8;-172
51361.5;-129
51369.2;-128
51376.9;-100
51384.6;-125
51392.3;-105
51400.0;-133
51407.7;-154
51415.4;-183
51423.1;-216
51430.8;-236
51438.5;-262
51446.2;-245
51453.8;-251
51461.5;-207
51469.2;-227
51476.9;-208
51484.6;-224
51492.3;-198
51500.0;-216
51507.7;-205
51515.4;-236
51523.1;-231
51530.8;-229
51538.5;-236
51546.2;-217
51553.8;-228
51561.5;-201
51569.2;-157
51576.9;-51
51584.6;175
51592.3;579
51600.0;1029
51607.7;1451
51615.4;1360
51623.1;667
51630.8;97
51638.5;-82
51646.2;-135
51653.8;-215
51661.5;-250
51669.2;-301
51676.9;-320
51684.6;-360
51692.3;-366
51700.0;-392
51707.7;-380
51715.4;-383
51723.1;-364
51730.8;-344
51738.5;-340
51746.2;-326
51753.8;-328
51761.5;-292
51769.2;-292
51776.9;-255
51784.6;-249
51792.3;-223
51800.0;-228
51807.7;-204
51815.4;-215
51823.1;-190
51830.8;-198
51838.5;-219
51846.2;-216
51853.8;-260
51861.5;-275
51869.2;-295
51876.9;-271
51884.6;-284
51892.3;-253
51900.0;-277
51907.7;-262
51915.4;-276
51923.1;-278
51930.8;-264
51938.5;-268
51946.2;-247
51953.8;-267
51961.5;-241
51969.2;-257
51976.9;-233
51984.6;-227
51992.3;-210
52000.0;-226
52007.7;-220
52015.4;-222
52023.1;-229
52030.8;-241
52038.5;-228
52046.2;-212
52053.8;-226
52061.5;-214
52069.2;-251
52076.9;-228
52084.6;-254
52092.3;-220
52100.0;-228
52107.7;-189
52115.4;-150
52123.1;-23
52130.8;301
52138.5;685
52146.2;1101
52153.8;1288
52161.5;964
52169.2;293
52176.9;-84
52184.6;-181
52192.3;-172
52200.0;-249
52207.7;-255
52215.4;-287
52223.1;-307
52230.8;-331
52238.5;-344
52246.2;-335
52253.8;-360
52261.5;-328
52269.2;-359
52276.9;-341
52284.6;-359
52292.3;-340
52300.0;-340
52307.7;-325
52315.4;-322
52323.1;-293
52330.8;-282
52338.5;-279
52346.2;-269
52353.8;-250
52361.5;-206
52369.2;-216
52376.9;-196
52384.6;-216
52392.3;-202
52400.0;-224
52407.7;-225
52415.4;-247
52423.1;-230
52430.8;-232
52438.5;-250
52446.2;-254
52453.8;-271
52461.5;-247
52469.2;-265
52476.9;-228
52484.6;-249
52492.3;-243
52500.0;-258
52507.7;-229
52515.4;-228
52523.1;-230
52530.8;-242
52538.5;-265
52546.2;-253
52553.8;-277
52561.5;-264
52569.2;-290
52576.9;-274
52584.6;-299
52592.3;-275
52600.0;-299
52607.7;-273
52615.4;-272
52623.1;-256
52630.8;-246
52638.5;-250
52646.2;-258
52653.8;-252
52661.5;-229
52669.2;-253
52676.9;-232
52684.6;-244
52692.3;-205
52700.0;-238
52707.7;-224
52715.4;-229
52723.1;-227
52730.8;-190
52738.5;-159
52746.2;21
52753.8;357
52761.5;788
52769.2;1152
52776.9;1301
52784.6;842
52792.3;237
52800.0;-76
52807.7;-136
52815.4;-165
52823.1;-200
52830.8;-231
52838.5;-274
52846.2;-281
52853.8;-301
52861.5;-297
52869.2;-324
52876.9;-301
52884.6;-326
52892.3;-307
52900.0;-330
52907.7;-320
52915.4;-329
52923.1;-325
52930.8;-316
52938.5;-302
52946.2;-275
52953.8;-292
52961.5;-259
52969.2;-279
52976.9;-235
52984.6;-232
52992.3;-208
53000.0;-203
53007.7;-185
53015.4;-183
53023.1;-177
53030.8;-182
53038.5;-203
53046.2;-205
53053.8;-239
53061.5;-233
53069.2;-273
53076.9;-261
53084.6;-290
53092.3;-265
53100.0;-291
53107.7;-274
53115.4;-281
53123.1;-265
53130.8;-248
53138.5;-254
53146.2;-218
53153.8;-240
53161.5;-217
53169.2;-249
53176.9;-217
53184.6;-240
53192.3;-213
53200.0;-220
53207.7;-207
53215.4;-216
53223.1;-209
53230.8;-206
53238.5;-214
53246.2;-222
53253.8;-246
53261.5;-241
53269.2;-274
53276.9;-246
53284.6;-258
53292.3;-229
53300.0;-220
53307.7;-208
53315.4;-215
53323.1;-198
53330.8;-190
53338.5;-161
53346.2;-78
53353.8;123
53361.5;505
53369.2;892
53376.9;1263
53384.6;1244
53392.3;710
53400.0;68
53407.7;-186
53415.4;-222
53423.1;-243
53430.8;-302
53438.5;-348
53446.2;-346
53453.8;-361
53461.5;-327
53469.2;-338
53476.9;-308
53484.6;-325
53492.3;-296
53500.0;-299
53507.7;-279
53515.4;-271
53523.1;-274
53530.8;-271
53538.5;-269
53546.2;-260
53553.8;-258
53561.5;-223
53569.2;-250
53576.9;-218
53584.6;-218
53592.3;-194
53600.0;-201
53607.7;-174
53615.4;-171
53623.1;-170
53630.8;-165
53638.5;-182
53646.2;-191
53653.8;-208
53661.5;-202
53669.2;-222
53676.9;-202
53684.6;-222
53692.3;-200
53700.0;-228
53707.7;-218
53715.4;-244
53723.1;-246
53730.8;-261
53738.5;-282
53746.2;-277
53753.8;-287
53761.5;-245
53769.2;-265
53776.9;-245
53784.6;-267
53792.3;-210
53800.0;-213
53807.7;-210
53815.4;-208
53823.1;-200
53830.8;-185
53838.5;-198
53846.2;-183
53853.8;-212
53861.5;-186
53869.2;-210
53876.9;-189
53884.6;-216
53892.3;-194
53900.0;-214
53907.7;-211
53915.4;-230
53923.1;-234
53930.8;-233
53938.5;-249
53946.2;-231
53953.8;-238
53961.5;-206
53969.2;-203
53976.9;-170
53984.6;-202
53992.3;-175
54000.0;-188
54007.7;-184
54015.4;-188
54023.1;-188
54030.8;-181
54038.5;-185
54046.2;-147
54053.8;-146
54061.5;-113
54069.2;-118
54076.9;-48
54084.6;81
54092.3;437
54100.0;825
54107.7;1192
54115.4;1479
54123.1;1212
54130.8;512
54138.5;-19
54146.2;-183
54153.8;-173
54161.5;-184
54169.2;-239
54176.9;-217
54184.6;-240
54192.3;-221
54200.0;-247
54207.7;-240
54215.4;-250
54223.1;-245
54230.8;-250
54238.5;-256
54246.2;-242
54253.8;-259
54261.5;-228
54269.2;-262
54276.9;-239
54284.6;-260
54292.3;-225
54300.0;-244
54307.7;-228
54315.4;-221
54323.1;-214
54330.8;-182
54338.5;-171
54346.2;-137
54353.8;-138
54361.5;-105
54369.2;-120
54376.9;-95
54384.6;-123
54392.3;-131
54400.0;-168
54407.7;-176
54415.4;-190
54423.1;-194
54430.8;-197
54438.5;-196
54446.2;-199
54453.8;-220
54461.5;-211
54469.2;-229
54476.9;-201
54484.6;-201
54492.3;-171
54500.0;-202
54507.7;-189
54515.4;-198
54523.1;-190
54530.8;-184
54538.5;-184
54546.2;-160
54553.8;-184
54561.5;-167
54569.2;-173
54576.9;-83
54584.6;-11
54592.3;303
54600.0;672
54607.7;1120
54615.4;1388
54623.1;1224
54630.8;617
54638.5;157
54646.2;-22
54653.8;-129
54661.5;-143
54669.2;-220
54676.9;-219
54684.6;-265
54692.3;-252
54700.0;-285
54707.7;-278
54715.4;-310
54723.1;-314
54730.8;-318
54738.5;-328
54746.2;-314
54753.8;-326
54761.5;-263
54769.2;-275
54776.9;-231
54784.6;-233
54792.3;-183
54800.0;-188
54807.7;-158
54815.4;-138
54823.1;-120
54830.8;-103
54838.5;-108
54846.2;-91
54853.8;-125
54861.5;-127
54869.2;-178
54876.9;-180
54884.6;-225
54892.3;-225
54900.0;-241
54907.7;-235
54915.4;-235
54923.1;-227
54930.8;-225
54938.5;-246
54946.2;-240
54953.8;-248
54961.5;-214
54969.2;-235
54976.9;-223
54984.6;-235
54992.3;-214
55000.0;-224
55007.7;-210
55015.4;-213
55023.1;-205
55030.8;-185
55038.5;-190
55046.2;-132
55053.8;-78
55061.5;154
55069.2;463
55076.9;876
55084.6;1227
55092.3;1291
55100.0;712
55107.7;125
55115.4;-84
55123.1;-179
55130.8;-202
55138.5;-261
55146.2;-285
55153.8;-341
55161.5;-322
55169.2;-357
55176.9;-340
55184.6;-370
55192.3;-340
55200.0;-351
55207.7;-329
55215.4;-323
55223.1;-312
55230.8;-304
55238.5;-293
55246.2;-259
55253.8;-266
55261.5;-230
55269.2;-246
55276.9;-214
55284.6;-190
55292.3;-162
55300.0;-158
55307.7;-136
55315.4;-137
55323.1;-146
55330.8;-158
55338.5;-192
55346.2;-199
55353.8;-237
55361.5;-234
55369.2;-265
55376.9;-261
55384.6;-281
55392.3;-250
55400.0;-250
55407.7;-236
55415.4;-230
55423.1;-229
55430.8;-227
55438.5;-240
55446.2;-216
55453.8;-211
55461.5;-199
55469.2;-206
55476.9;-200
55484.6;-222
55492.3;-209
55500.0;-242
55507.7;-231
55515.4;-243
55523.1;-237
55530.8;-239
55538.5;-253
55546.2;-254
55553.8;-256
55561.5;-241
55569.2;-256
55576.9;-236
55584.6;-270
55592.3;-267
55600.0;-283
55607.7;-244
55615.4;-239
55623.1;-228
55630.8;-212
55638.5;-191
55646.2;-197
55653.8;-227
55661.5;-205
55669.2;-240
55676.9;-228
55684.6;-238
55692.3;-224
55700.0;-254
55707.7;-243
55715.4;-234
55723.1;-213
55730.8;-206
55738.5;-206
55746.2;-199
55753.8;-203
55761.5;-169
55769.2;-168
55776.9;-89
55784.6;17
55792.3;409
55800.0;816
55807.7;1237
55815.4;1391
55823.1;864
55830.8;178
55838.5;-141
55846.2;-184
55853.8;-205
55861.5;-245
55869.2;-291
55876.9;-271
55884.6;-311
55892.3;-300
55900.0;-308
55907.7;-317
55915.4;-331
55923.1;-321
55930.8;-319
55938.5;-315
55946.2;-276
55953.8;-298
55961.5;-256
55969.2;-269
55976.9;-224
55984.6;-233
55992.3;-227
56000.0;-242
56007.7;-224
56015.4;-221
56023.1;-186
56030.8;-161
56038.5;-149
56046.2;-124
56053.8;-143
56061.5;-136
56069.2;-179
56076.9;-178
56084.6;-226
56092.3;-229
56100.0;-263
56107.7;-252
56115.4;-261
56123.1;-247
56130.8;-227
56138.5;-217
56146.2;-196
56153.8;-209
56161.5;-168
56169.2;-177
56176.9;-145
56184.6;-174
56192.3;-142
56200.0;-161
56207.7;-133
56215.4;-132
56223.1;-107
56230.8;-25
56238.5;179
56246.2;559
56253.8;898
56261.5;1267
56269.2;1331
56276.9;856
56284.6;131
56292.3;-123
56300.0;-177
56307.7;-152
56315.4;-191
56323.1;-216
56330.8;-234
56338.5;-258
56346.2;-269
56353.8;-292
56361.5;-286
56369.2;-295
56376.9;-284
56384.6;-303
56392.3;-281
56400.0;-298
56407.7;-269
56415.4;-285
56423.1;-281
56430.8;-271
56438.5;-282
56446.2;-252
56453.8;-244
56461.5;-198
56469.2;-188
56476.9;-101
56484.6;-66
56492.3;-54
56500.0;-80
56507.7;-98
56515.4;-132
56523.1;-160
56530.8;-189
56538.5;-194
56546.2;-209
56553.8;-255
56561.5;-248
56569.2;-283
56576.9;-268
56584.6;-297
56592.3;-283
56600.0;-304
56607.7;-287
56615.4;-281
56623.1;-250
56630.8;-207
56638.5;-197
56646.2;-189
56653.8;-202
56661.5;-184
56669.2;-200
56676.9;-177
56684.6;-204
56692.3;-193
56700.0;-224
56707.7;-234
56715.4;-262
56723.1;-283
56730.8;-273
56738.5;-298
56746.2;-296
56753.8;-308
56761.5;-273
56769.2;-260
56776.9;-197
56784.6;-212
56792.3;-193
56800.0;-212
56807.7;-192
56815.4;-203
56823.1;-221
56830.8;-215
56838.5;-222
56846.2;-225
56853.8;-236
56861.5;-232
56869.2;-268
56876.9;-270
56884.6;-304
56892.3;-276
56900.0;-279
56907.7;-273
56915.4;-273
56923.1;-257
56930.8;-232
56938.5;-223
56946.2;-207
56953.8;-221
56961.5;-200
56969.2;-238
56976.9;-222
56984.6;-235
56992.3;-215
57000.0;-237
57007.7;-249
57015.4;-281
57023.1;-293
57030.8;-258
57038.5;-241
57046.2;-155
57053.8;-52
57061.5;330
57069.2;774
57076.9;1243
57084.6;1474
57092.3;1009
57100.0;252
57107.7;-111
57115.4;-146
57123.1;-177
57130.8;-254
57138.5;-285
57146.2;-303
57153.8;-333
57161.5;-334
57169.2;-380
57176.9;-381
57184.6;-410
57192.3;-379
57200.0;-393
57207.7;-358
57215.4;-360
57223.1;-332
57230.8;-317
57238.5;-324
57246.2;-307
57253.8;-314
57261.5;-285
57269.2;-306
57276.9;-289
57284.6;-306
57292.3;-269
57300.0;-269
57307.7;-256
57315.4;-251
57323.1;-262
57330.8;-268
57338.5;-285
57346.2;-258
57353.8;-281
57361.5;-268
57369.2;-297
57376.9;-291
57384.6;-321
57392.3;-294
57400.0;-300
57407.7;-281
57415.4;-275
57423.1;-272
57430.8;-260
57438.5;-261
57446.2;-242
57453.8;-285
57461.5;-267
57469.2;-287
57476.9;-253
57484.6;-260
57492.3;-235
57500.0;-260
57507.7;-255
57515.4;-271
57523.1;-283
57530.8;-291
57538.5;-293
57546.2;-282
57553.8;-308
57561.5;-280
57569.2;-299
57576.9;-276
57584.6;-291
57592.3;-274
57600.0;-273
57607.7;-268
57615.4;-245
57623.1;-186
57630.8;-7
57638.5;319
57646.2;769
57653.8;1184
57661.5;1381
57669.2;1003
57676.9;350
57684.6;-76
57692.3;-208
57700.0;-262
57707.7;-327
57715.4;-378
57723.1;-400
57730.8;-411
57738.5;-407
57746.2;-415
57753.8;-441
57761.5;-420
57769.2;-440
57776.9;-397
57784.6;-402
57792.3;-357
57800.0;-347
57807.7;-329
57815.4;-337
57823.1;-340
57830.8;-347
57838.5;-347
57846.2;-320
57853.8;-319
57861.5;-297
57869.2;-312
57876.9;-283
57884.6;-296
57892.3;-283
57900.0;-293
57907.7;-300
57915.4;-324
57923.1;-325
57930.8;-313
57938.5;-298
57946.2;-293
57953.8;-319
57961.5;-305
57969.2;-344
57976.9;-331
57984.6;-362
57992.3;-344
58000.0;-359
58007.7;-349
58015.4;-354
58023.1;-348
58030.8;-349
58038.5;-368
58046.2;-365
58053.8;-367
58061.5;-326
58069.2;-328
58076.9;-284
58084.6;-295
58092.3;-269
58100.0;-300
58107.7;-299
58115.4;-293
58123.1;-298
58130.8;-305
58138.5;-318
58146.2;-318
58153.8;-344
58161.5;-331
58169.2;-346
58176.9;-322
58184.6;-327
58192.3;-291
58200.0;-314
58207.7;-297
58215.4;-307
58223.1;-269
58230.8;-261
58238.5;-250
58246.2;-216
58253.8;-249
58261.5;-235
58269.2;-258
58276.9;-246
58284.6;-253
58292.3;-228
58300.0;-214
58307.7;-150
58315.4;-16
58323.1;342
58330.8;786
58338.5;1196
58346.2;1342
58353.8;837
58361.5;153
58369.2;-192
58376.9;-227
58384.6;-272
58392.3;-320
58400.0;-360
58407.7;-368
58415.4;-400
58423.1;-390
58430.8;-371
58438.5;-366
58446.2;-378
58453.8;-393
58461.5;-366
58469.2;-392
58476.9;-373
58484.6;-388
58492.3;-356
58500.0;-357
58507.7;-331
58515.4;-333
58523.1;-292
58530.8;-275
58538.5;-253
58546.2;-225
58553.8;-224
58561.5;-181
58569.2;-184
58576.9;-162
58584.6;-196
58592.3;-201
58600.0;-248
58607.7;-270
58615.4;-273
58623.1;-264
58630.8;-277
58638.5;-304
58646.2;-314
58653.8;-324
58661.5;-299
58669.2;-325
58676.9;-303
58684.6;-315
58692.3;-280
58700.0;-295
58707.7;-277
58715.4;-283
58723.1;-272
58730.8;-271
58738.5;-287
58746.2;-270
58753.8;-294
58761.5;-279
58769.2;-307
58776.9;-262
58784.6;-264
58792.3;-241
58800.0;-271
58807.7;-256
58815.4;-266
58823.1;-268
58830.8;-269
58838.5;-277
58846.2;-268
58853.8;-267
58861.5;-250
58869.2;-277
58876.9;-266
58884.6;-283
58892.3;-275
58900.0;-303
58907.7;-277
58915.4;-298
58923.1;-296
58930.8;-300
58938.5;-302
58946.2;-257
58953.8;-249
58961.5;-228
58969.2;-248
58976.9;-227
58984.6;-268
58992.3;-246
59000.0;-255
59007.7;-242
59015.4;-240
59023.1;-252
59030.8;-252
59038.5;-269
59046.2;-257
59053.8;-287
59061.5;-276
59069.2;-309
59076.9;-279
59084.6;-300
59092.3;-294
59100.0;-307
59107.7;-307
59115.4;-312
59123.1;-287
59130.8;-264
59138.5;-239
59146.2;-216
59153.8;-216
59161.5;-171
59169.2;-217
59176.9;-200
59184.6;-229
59192.3;-205
59200.0;-230
59207.7;-212
59215.4;-229
59223.1;-225
59230.8;-219
59238.5;-220
59246.2;-212
59253.8;-216
59261.5;-141
59269.2;-84
59276.9;221
59284.6;666
59292.3;1137
59300.0;1540
59307.7;1572
59315.4;922
59323.1;179
59330.8;-191
59338.5;-190
59346.2;-158
59353.8;-253
59361.5;-263
59369.2;-310
59376.9;-305
59384.6;-335
59392.3;-319
59400.0;-349
59407.7;-324
59415.4;-334
59423.1;-334
59430.8;-332
59438.5;-345
59446.2;-322
59453.8;-339
59461.5;-295
59469.2;-321
59476.9;-293
59484.6;-301
59492.3;-259
59500.0;-255
59507.7;-233
59515.4;-227
59523.1;-230
59530.8;-209
59538.5;-219
59546.2;-208
59553.8;-234
59561.5;-221
59569.2;-249
59576.9;-248
59584.6;-279
59592.3;-287
59600.0;-309
59607.7;-304
59615.4;-310
59623.1;-313
59630.8;-321
59638.5;-316
59646.2;-306
59653.8;-320
59661.5;-295
59669.2;-301
59676.9;-272
59684.6;-287
59692.3;-251
59700.0;-236
59707.7;-223
59715.4;-240
59723.1;-228
59730.8;-241
59738.5;-262
59746.2;-239
59753.8;-268
59761.5;-260
59769.2;-283
59776.9;-272
59784.6;-312
59792.3;-275
59800.0;-300
59807.7;-293
59815.4;-291
59823.1;-284
59830.8;-261
59838.5;-289
59846.2;-269
59853.8;-296
59861.5;-270
59869.2;-279
59876.9;-244
59884.6;-268
59892.3;-275
59900.0;-287
59907.7;-282
59915.4;-282
59923.1;-283
59930.8;-282
59938.5;-300
59946.2;-295
59953.8;-310
59961.5;-301
59969.2;-316
59976.9;-285
59984.6;-308
59992.3;-274
60000.0;-285
60007.7;-269
60015.4;-273
60023.1;-268
60030.8;-252
60038.5;-267
60046.2;-252
60053.8;-282
60061.5;-263
60069.2;-255
60076.9;-210
60084.6;-245
60092.3;-216
60100.0;-241
60107.7;-240
60115.4;-254
60123.1;-247
60130.8;-242
60138.5;-245
60146.2;-239
60153.8;-255
60161.5;-213
60169.2;-186
60176.9;-85
60184.6;96
60192.3;481
60200.0;902
60207.7;1330
60215.4;1514
60223.1;1057
60230.8;325
60238.5;-139
60246.2;-201
60253.8;-196
60261.5;-241
60269.2;-304
60276.9;-308
60284.6;-332
60292.3;-336
60300.0;-352
60307.7;-337
60315.4;-338
60323.1;-339
60330.8;-318
60338.5;-336
60346.2;-316
60353.8;-342
60361.5;-321
60369.2;-336
60376.9;-324
60384.6;-337
60392.3;-310
60400.0;-319
60407.7;-278
60415.4;-243
60423.1;-213
60430.8;-174
60438.5;-181
60446.2;-147
60453.8;-166
60461.5;-144
60469.2;-185
60476.9;-179
60484.6;-213
60492.3;-218
60500.0;-259
60507.7;-289
60515.4;-301
60523.1;-310
60530.8;-316
60538.5;-349
60546.2;-354
60553.8;-368
60561.5;-338
60569.2;-336
60576.9;-295
60584.6;-299
60592.3;-265
60600.0;-279
60607.7;-268
60615.4;-264
60623.1;-256
60630.8;-244
60638.5;-241
60646.2;-235
60653.8;-254
60661.5;-230
60669.2;-256
60676.9;-244
60684.6;-285
60692.3;-266
60700.0;-282
60707.7;-288
60715.4;-302
60723.1;-299
60730.8;-253
60738.5;-244
60746.2;-246
60753.8;-261
60761.5;-249
60769.2;-269
60776.9;-260
60784.6;-274
60792.3;-260
60800.0;-272
60807.7;-268
60815.4;-272
60823.1;-269
60830.8;-284
60838.5;-307
60846.2;-280
60853.8;-306
60861.5;-282
60869.2;-315
60876.9;-301
60884.6;-302
60892.3;-281
60900.0;-278
60907.7;-271
60915.4;-265
60923.1;-225
60930.8;-187
60938.5;-215
60946.2;-189
60953.8;-210
60961.5;-196
60969.2;-215
60976.9;-201
60984.6;-233
60992.3;-245
61000.0;-257
61007.7;-243
61015.4;-247
61023.1;-245
61030.8;-224
61038.5;-236
61046.2;-227
61053.8;-250
61061.5;-206
61069.2;-187
61076.9;-86
61084.6;128
61092.3;558
61100.0;969
61107.7;1392
61115.4;1453
61123.1;915
61130.8;291
61138.5;-60
61146.2;-125
61153.8;-172
61161.5;-217
61169.2;-287
61176.9;-280
61184.6;-318
61192.3;-303
61200.0;-321
61207.7;-320
61215.4;-327
61223.1;-335
61230.8;-314
61238.5;-330
61246.2;-306
61253.8;-309
61261.5;-272
61269.2;-293
61276.9;-239
61284.6;-218
61292.3;-145
61300.0;-116
61307.7;-88
61315.4;-75
61323.1;-67
61330.8;-36
61338.5;-41
61346.2;-19
61353.8;-49
61361.5;-55
61369.2;-97
61376.9;-109
61384.6;-168
61392.3;-168
61400.0;-202
61407.7;-212
61415.4;-220
61423.1;-231
61430.8;-240
61438.5;-260
61446.2;-251
61453.8;-269
61461.5;-244
61469.2;-259
61476.9;-209
61484.6;-214
61492.3;-187
61500.0;-194
61507.7;-194
61515.4;-196
61523.1;-213
61530.8;-210
61538.5;-223
61546.2;-203
61553.8;-204
61561.5;-191
61569.2;-222
61576.9;-208
61584.6;-229
61592.3;-219
61600.0;-228
61607.7;-205
61615.4;-213
61623.1;-209
61630.8;-219
61638.5;-226
61646.2;-193
61653.8;-187
61661.5;-163
61669.2;-184
61676.9;-159
61684.6;-199
61692.3;-173
61700.0;-200
61707.7;-191
61715.4;-202
61723.1;-216
61730.8;-204
61738.5;-221
61746.2;-184
61753.8;-195
61761.5;-165
61769.2;-189
61776.9;-158
61784.6;-177
61792.3;-166
61800.0;-177
61807.7;-168
61815.4;-164
61823.1;-130
61830.8;-41
61838.5;89
61846.2;467
61853.8;913
61861.5;1374
61869.2;1706
61876.9;1496
61884.6;639
61892.3;17
61900.0;-199
61907.7;-133
61915.4;-161
61923.1;-207
61930.8;-229
61938.5;-248
61946.2;-239
61953.8;-269
61961.5;-252
61969.2;-273
61976.9;-256
61984.6;-268
61992.3;-241
62000.0;-248
62007.7;-226
62015.4;-205
62023.1;-163
62030.8;-142
62038.5;-141
62046.2;-83
62053.8;-85
62061.5;-35
62069.2;-40
62076.9;-20
62084.6;-28
62092.3;-11
62100.0;-34
62107.7;-37
62115.4;-66
62123.1;-104
62130.8;-128
62138.5;-170
62146.2;-155
62153.8;-202
62161.5;-194
62169.2;-228
62176.9;-206
62184.6;-227
62192.3;-226
62200.0;-221
62207.7;-176
62215.4;-181
62223.1;-197
62230.8;-189
62238.5;-217
62246.2;-195
62253.8;-226
62261.5;-200
62269.2;-212
62276.9;-198
62284.6;-218
62292.3;-195
62300.0;-208
62307.7;-211
62315.4;-200
62323.1;-201
62330.8;-183
62338.5;-208
62346.2;-199
62353.8;-220
62361.5;-188
62369.2;-210
62376.9;-185
62384.6;-228
62392.3;-221
62400.0;-224
62407.7;-190
62415.4;-159
62423.1;-166
62430.8;-147
62438.5;-158
62446.2;-145
62453.8;-163
62461.5;-105
62469.2;-51
62476.9;168
62484.6;548
62492.3;1045
62500.0;1510
62507.7;1677
62515.4;1136
62523.1;318
62530.8;-121
62538.5;-173
62546.2;-169
62553.8;-257
62561.5;-262
62569.2;-308
62576.9;-279
62584.6;-321
62592.3;-304
62600.0;-313
62607.7;-277
62615.4;-272
62623.1;-266
62630.8;-241
62638.5;-253
62646.2;-234
62653.8;-253
62661.5;-223
62669.2;-239
62676.9;-189
62684.6;-197
62692.3;-162
62700.0;-159
62707.7;-140
62715.4;-124
62723.1;-113
62730.8;-139
62738.5;-174
62746.2;-186
62753.8;-219
62761.5;-217
62769.2;-243
62776.9;-215
62784.6;-263
62792.3;-253
62800.0;-269
62807.7;-285
62815.4;-299
62823.1;-302
62830.8;-290
62838.5;-304
62846.2;-287
62853.8;-308
62861.5;-286
62869.2;-300
62876.9;-272
62884.6;-267
62892.3;-248
62900.0;-256
62907.7;-263
62915.4;-286
62923.1;-304
62930.8;-317
62938.5;-283
62946.2;-225
62953.8;-239
62961.5;-222
62969.2;-276
62976.9;-272
62984.6;-312
62992.3;-301
63000.0;-305
63007.7;-294
63015.4;-293
63023.1;-287
63030.8;-261
63038.5;-252
63046.2;-191
63053.8;-137
63061.5;113
63069.2;502
63076.9;975
63084.6;1378
63092.3;1440
63100.0;834
63107.7;167
63115.4;-130
63123.1;-191
63130.8;-240
63138.5;-318
63146.2;-326
63153.8;-367
63161.5;-350
63169.2;-373
63176.9;-356
63184.6;-371
63192.3;-340
63200.0;-357
63207.7;-355
63215.4;-336
63223.1;-334
63230.8;-311
63238.5;-321
63246.2;-276
63253.8;-257
63261.5;-206
63269.2;-198
63276.9;-173
63284.6;-174
63292.3;-126
63300.0;-113
63307.7;-85
63315.4;-115
63323.1;-136
63330.8;-176
63338.5;-236
63346.2;-249
63353.8;-313
63361.5;-294
63369.2;-337
63376.9;-311
63384.6;-344
63392.3;-329
63400.0;-348
63407.7;-341
63415.4;-355
63423.1;-364
63430.8;-361
63438.5;-363
63446.2;-334
63453.8;-347
63461.5;-332
63469.2;-342
63476.9;-302
63484.6;-315
63492.3;-278
63500.0;-273
63507.7;-269
63515.4;-269
63523.1;-265
63530.8;-262
63538.5;-273
63546.2;-250
63553.8;-266
63561.5;-254
63569.2;-291
63576.9;-277
63584.6;-307
63592.3;-282
63600.0;-284
63607.7;-262
63615.4;-280
63623.1;-299
63630.8;-292
63638.5;-286
63646.2;-213
63653.8;-198
63661.5;-109
63669.2;107
63676.9;556
63684.6;1010
63692.3;1440
63700.0;1282
63707.7;533
63715.4;-49
63723.1;-188
63730.8;-198
63738.5;-283
63746.2;-303
63753.8;-350
63761.5;-351
63769.2;-397
63776.9;-383
63784.6;-401
63792.3;-387
63800.0;-404
63807.7;-382
63815.4;-338
63823.1;-311
63830.8;-272
63838.5;-255
63846.2;-204
63853.8;-190
63861.5;-139
63869.2;-129
63876.9;-97
63884.6;-90
63892.3;-49
63900.0;-46
63907.7;-58
63915.4;-100
63923.1;-147
63930.8;-183
63938.5;-257
63946.2;-276
63953.8;-289
63961.5;-274
63969.2;-300
63976.9;-260
63984.6;-293
63992.3;-263
64000.0;-271
64007.7;-269
64015.4;-256
64023.1;-252
64030.8;-244
64038.5;-260
64046.2;-248
64053.8;-267
64061.5;-262
64069.2;-270
64076.9;-263
64084.6;-282
64092.3;-250
64100.0;-264
64107.7;-242
64115.4;-217
64123.1;-221
64130.8;-198
64138.5;-212
64146.2;-200
64153.8;-202
64161.5;-190
64169.2;-223
64176.9;-204
64184.6;-239
64192.3;-228
64200.0;-246
64207.7;-241
64215.4;-250
64223.1;-260
64230.8;-243
64238.5;-267
64246.2;-226
64253.8;-241
64261.5;-212
64269.2;-215
64276.9;-182
64284.6;-210
64292.3;-197
64300.0;-203
64307.7;-192
64315.4;-187
64323.1;-204
64330.8;-208
64338.5;-210
64346.2;-199
64353.8;-253
64361.5;-242
64369.2;-265
64376.9;-240
64384.6;-250
64392.3;-224
64400.0;-233
64407.7;-218
64415.4;-200
64423.1;-188
64430.8;-202
64438.5;-203
64446.2;-167
64453.8;-184
64461.5;-174
64469.2;-203
64476.9;-165
64484.6;-192
64492.3;-163
64500.0;-186
64507.7;-183
64515.4;-201
64523.1;-194
64530.8;-181
64538.5;-197
64546.2;-179
64553.8;-197
64561.5;-165
64569.2;-183
64576.9;-155
64584.6;-164
64592.3;-123
64600.0;-105
64607.7;-26
64615.4;93
64623.1;419
64630.8;913
64638.5;1337
64646.2;1718
64653.8;1391
64661.5;599
64669.2;-36
64676.9;-245
64684.6;-171
64692.3;-183
64700.0;-218
64707.7;-222
64715.4;-249
64723.1;-274
64730.8;-277
64738.5;-290
64746.2;-268
64753.8;-278
64761.5;-247
64769.2;-263
64776.9;-231
64784.6;-234
64792.3;-210
64800.0;-217
64807.7;-188
64815.4;-188
64823.1;-165
64830.8;-120
64838.5;-136
64846.2;-118
64853.8;-113
64861.5;-76
64869.2;-96
64876.9;-76
64884.6;-95
64892.3;-90
64900.0;-120
64907.7;-119
64915.4;-148
64923.1;-169
64930.8;-185
64938.5;-219
64946.2;-207
64953.8;-249
64961.5;-212
64969.2;-221
64976.9;-199
64984.6;-241
64992.3;-229
65000.0;-244
65007.7;-226
65015.4;-225
65023.1;-232
65030.8;-200
65038.5;-220
65046.2;-200
65053.8;-211
65061.5;-176
65069.2;-191
65076.9;-164
65084.6;-182
65092.3;-151
65100.0;-160
65107.7;-165
65115.4;-163
65123.1;-194
65130.8;-181
65138.5;-203
65146.2;-187
65153.8;-201
65161.5;-178
65169.2;-204
65176.9;-186
65184.6;-210
65192.3;-199
65200.0;-204
65207.7;-199
65215.4;-207
65223.1;-212
65230.8;-210
65238.5;-218
65246.2;-202
65253.8;-214
65261.5;-177
65269.2;-199
65276.9;-178
65284.6;-214
65292.3;-208
65300.0;-203
65307.7;-193
65315.4;-166
65323.1;-121
65330.8;-21
65338.5;214
65346.2;603
65353.8;995
65361.5;1391
65369.2;1458
65376.9;983
65384.6;314
65392.3;-16
65400.0;-119
65407.7;-133
65415.4;-215
65423.1;-255
65430.8;-273
65438.5;-302
65446.2;-304
65453.8;-335
65461.5;-313
65469.2;-338
65476.9;-309
65484.6;-332
65492.3;-312
65500.0;-330
65507.7;-330
65515.4;-320
65523.1;-280
65530.8;-241
65538.5;-242
65546.2;-192
65553.8;-194
65561.5;-160
65569.2;-177
65576.9;-138
65584.6;-146
65592.3;-129
65600.0;-124
65607.7;-110
65615.4;-107
65623.1;-130
65630.8;-139
65638.5;-191
65646.2;-206
65653.8;-252
65661.5;-250
65669.2;-270
65676.9;-262
65684.6;-297
65692.3;-261
65700.0;-275
65707.7;-267
65715.4;-273
65723.1;-280
65730.8;-275
65738.5;-295
65746.2;-288
65753.8;-305
65761.5;-293
65769.2;-314
65776.9;-294
65784.6;-309
65792.3;-298
65800.0;-301
65807.7;-275
65815.4;-281
65823.1;-271
65830.8;-256
65838.5;-258
65846.2;-238
65853.8;-233
65861.5;-204
65869.2;-243
65876.9;-221
65884.6;-251
65892.3;-235
65900.0;-258
65907.7;-259
65915.4;-264
65923.1;-252
65930.8;-220
65938.5;-135
65946.2;146
65953.8;547
65961.5;1001
65969.2;1301
65976.9;1178
65984.6;513
65992.3;32
66000.0;-164
66007.7;-172
66015.4;-227
66023.1;-293
66030.8;-316
66038.5;-333
66046.2;-334
66053.8;-359
66061.5;-331
66069.2;-365
66076.9;-346
66084.6;-373
66092.3;-343
66100.0;-352
66107.7;-342
66115.4;-340
66123.1;-315
66130.8;-285
66138.5;-266
66146.2;-209
66153.8;-198
66161.5;-152
66169.2;-161
66176.9;-117
66184.6;-120
66192.3;-83
66200.0;-104
66207.7;-121
66215.4;-150
66223.1;-182
66230.8;-198
66238.5;-249
66246.2;-254
66253.8;-294
66261.5;-290
66269.2;-318
66276.9;-300
66284.6;-321
66292.3;-299
66300.0;-307
66307.7;-307
66315.4;-312
66323.1;-308
66330.8;-278
66338.5;-288
66346.2;-275
66353.8;-291
66361.5;-257
66369.2;-291
66376.9;-262
66384.6;-273
66392.3;-261
66400.0;-274
66407.7;-269
66415.4;-245
66423.1;-244
66430.8;-233
66438.5;-244
66446.2;-234
66453.8;-239
66461.5;-215
66469.2;-234
66476.9;-209
66484.6;-243
66492.3;-241
66500.0;-249
66507.7;-249
66515.4;-240
66523.1;-255
66530.8;-249
66538.5;-259
66546.2;-259
66553.8;-267
66561.5;-250
66569.2;-276
66576.9;-238
66584.6;-250
66592.3;-224
66600.0;-227
66607.7;-193
66615.4;-182
66623.1;-189
66630.8;-188
66638.5;-199
66646.2;-120
66653.8;-74
66661.5;100
66669.2;405
66676.9;836
66684.6;1270
66692.3;1618
66700.0;1396
66707.7;657
66715.4;12
66723.1;-261
66730.8;-210
66738.5;-241
66746.2;-274
66753.8;-313
66761.5;-300
66769.2;-317
66776.9;-297
66784.6;-305
66792.3;-269
66800.0;-274
66807.7;-267
66815.4;-263
66823.1;-273
66830.8;-254
66838.5;-262
66846.2;-241
66853.8;-237
66861.5;-197
66869.2;-204
66876.9;-168
66884.6;-163
66892.3;-139
66900.0;-144
66907.7;-122
66915.4;-114
66923.1;-122
66930.8;-110
66938.5;-127
66946.2;-125
66953.8;-168
66961.5;-153
66969.2;-194
66976.9;-189
66984.6;-223
66992.3;-225
67000.0;-256
67007.7;-255
67015.4;-256
67023.1;-251
67030.8;-231
67038.5;-232
67046.2;-194
67053.8;-240
67061.5;-221
67069.2;-244
67076.9;-238
67084.6;-251
67092.3;-210
67100.0;-204
67107.7;-176
67115.4;-136
67123.1;-69
67130.8;112
67138.5;482
67146.2;951
67153.8;1377
67161.5;1635
67169.2;1371
67176.9;661
67184.6;87
67192.3;-90
67200.0;-152
67207.7;-202
67215.4;-265
67223.1;-304
67230.8;-315
67238.5;-356
67246.2;-357
67253.8;-386
67261.5;-377
67269.2;-410
67276.9;-394
67284.6;-412
67292.3;-394
67300.0;-386
67307.7;-376
67315.4;-362
67323.1;-358
67330.8;-335
67338.5;-330
67346.2;-305
67353.8;-295
67361.5;-233
67369.2;-227
67376.9;-160
67384.6;-164
67392.3;-145
67400.0;-168
67407.7;-174
67415.4;-204
67423.1;-225
67430.8;-236
67438.5;-281
67446.2;-275
67453.8;-318
67461.5;-299
67469.2;-323
67476.9;-299
67484.6;-311
67492.3;-289
67500.0;-307
67507.7;-292
67515.4;-294
67523.1;-297
67530.8;-281
67538.5;-280
67546.2;-257
67553.8;-270
67561.5;-230
67569.2;-270
67576.9;-250
67584.6;-278
67592.3;-254
67600.0;-286
67607.7;-300
67615.4;-314
67623.1;-321
67630.8;-309
67638.5;-331
67646.2;-296
67653.8;-315
67661.5;-292
67669.2;-304
67676.9;-275
67684.6;-298
67692.3;-273
67700.0;-283
67707.7;-275
67715.4;-263
67723.1;-260
67730.8;-252
67738.5;-279
67746.2;-254
67753.8;-294
67761.5;-261
67769.2;-285
67776.9;-265
67784.6;-296
67792.3;-292
67800.0;-293
67807.7;-301
67815.4;-317
67823.1;-337
67830.8;-325
67838.5;-339
67846.2;-318
67853.8;-318
67861.5;-277
67869.2;-292
67876.9;-256
67884.6;-264
67892.3;-256
67900.0;-279
67907.7;-270
67915.4;-259
67923.1;-265
67930.8;-258
67938.5;-272
67946.2;-244
67953.8;-267
67961.5;-227
67969.2;-256
67976.9;-254
67984.6;-248
67992.3;-228
68000.0;-182
68007.7;-98
68015.4;125
68023.1;483
68030.8;918
68038.5;1291
68046.2;1394
68053.8;867
68061.5;258
68069.2;-99
68076.9;-173
68084.6;-229
68092.3;-278
68100.0;-327
68107.7;-360
68115.4;-366
68123.1;-375
68130.8;-373
68138.5;-387
68146.2;-354
68153.8;-374
68161.5;-343
68169.2;-378
68176.9;-352
68184.6;-361
68192.3;-332
68200.0;-334
68207.7;-314
68215.4;-296
68223.1;-288
68230.8;-252
68238.5;-245
68246.2;-209
68253.8;-214
68261.5;-174
68269.2;-182
68276.9;-157
68284.6;-162
68292.3;-142
68300.0;-178
68307.7;-220
68315.4;-254
68323.1;-265
68330.8;-289
68338.5;-311
68346.2;-307
68353.8;-325
68361.5;-297
68369.2;-324
68376.9;-292
68384.6;-304
68392.3;-285
68400.0;-302
68407.7;-290
68415.4;-303
68423.1;-289
68430.8;-255
68438.5;-284
68446.2;-243
68453.8;-256
68461.5;-237
68469.2;-273
68476.9;-254
68484.6;-268
68492.3;-259
68500.0;-276
68507.7;-268
68515.4;-274
68523.1;-278
68530.8;-245
68538.5;-253
68546.2;-232
68553.8;-263
68561.5;-223
68569.2;-258
68576.9;-237
68584.6;-257
68592.3;-238
68600.0;-244
68607.7;-186
68615.4;-134
68623.1;55
68630.8;481
68638.5;929
68646.2;1323
68653.8;1358
68661.5;834
68669.2;122
68676.9;-138
68684.6;-223
68692.3;-252
68700.0;-311
68707.7;-322
68715.4;-346
68723.1;-343
68730.8;-330
68738.5;-354
68746.2;-315
68753.8;-339
68761.5;-314
68769.2;-349
68776.9;-341
68784.6;-349
68792.3;-333
68800.0;-337
68807.7;-311
68815.4;-288
68823.1;-272
68830.8;-243
68838.5;-235
68846.2;-207
68853.8;-207
68861.5;-174
68869.2;-183
68876.9;-150
68884.6;-174
68892.3;-182
68900.0;-192
68907.7;-210
68915.4;-247
68923.1;-282
68930.8;-289
68938.5;-313
68946.2;-288
68953.8;-306
68961.5;-280
68969.2;-307
68976.9;-286
68984.6;-308
68992.3;-314
69000.0;-316
69007.7;-316
69015.4;-310
69023.1;-318
69030.8;-300
69038.5;-313
69046.2;-269
69053.8;-290
69061.5;-256
69069.2;-270
69076.9;-236
69084.6;-261
69092.3;-230
69100.0;-229
69107.7;-221
69115.4;-220
69123.1;-235
69130.8;-210
69138.5;-232
69146.2;-208
69153.8;-238
69161.5;-208
69169.2;-239
69176.9;-223
69184.6;-253
69192.3;-244
69200.0;-251
69207.7;-246
69215.4;-248
69223.1;-254
69230.8;-243
69238.5;-226
69246.2;-161
69253.8;-126
69261.5;5
69269.2;307
69276.9;836
69284.6;1315
69292.3;1566
69300.0;962
69307.7;127
69315.4;-247
69323.1;-231
69330.8;-225
69338.5;-294
69346.2;-297
69353.8;-342
69361.5;-328
69369.2;-361
69376.9;-329
69384.6;-342
69392.3;-328
69400.0;-320
69407.7;-312
69415.4;-306
69423.1;-281
69430.8;-249
69438.5;-235
69446.2;-196
69453.8;-202
69461.5;-168
69469.2;-152
69476.9;-101
69484.6;-114
69492.3;-87
69500.0;-103
69507.7;-114
69515.4;-130
69523.1;-161
69530.8;-175
69538.5;-215
69546.2;-228
69553.8;-280
69561.5;-274
69569.2;-309
69576.9;-302
69584.6;-309
69592.3;-302
69600.0;-305
69607.7;-288
69615.4;-261
69623.1;-244
69630.8;-214
69638.5;-227
69646.2;-206
69653.8;-245
69661.5;-217
69669.2;-249
69676.9;-239
69684.6;-244
69692.3;-227
69700.0;-230
69707.7;-230
69715.4;-233
69723.1;-233
69730.8;-219
69738.5;-243
69746.2;-208
69753.8;-228
69761.5;-200
69769.2;-234
69776.9;-220
69784.6;-240
69792.3;-223
69800.0;-234
69807.7;-229
69815.4;-228
69823.1;-252
69830.8;-258
69838.5;-283
69846.2;-252
69853.8;-271
69861.5;-264
69869.2;-296
69876.9;-285
69884.6;-263
69892.3;-225
69900.0;-212
69907.7;-201
69915.4;-198
69923.1;-194
69930.8;-182
69938.5;-153
69946.2;-66
69953.8;140
69961.5;595
69969.2;1030
69976.9;1479
69984.6;1426
69992.3;734
70000.0;31
70007.7;-255
70015.4;-232
70023.1;-257
70030.8;-285
70038.5;-317
70046.2;-301
70053.8;-312
70061.5;-289
70069.2;-326
70076.9;-320
70084.6;-337
70092.3;-326
70100.0;-342
70107.7;-331
70115.4;-317
70123.1;-305
70130.8;-299
70138.5;-312
70146.2;-277
70153.8;-310
70161.5;-279
70169.2;-267
70176.9;-222
70184.6;-232
70192.3;-188
70200.0;-178
70207.7;-173
70215.4;-198
70223.1;-217
70230.8;-213
70238.5;-258
70246.2;-270
70253.8;-312
70261.5;-317
70269.2;-343
70276.9;-313
70284.6;-344
70292.3;-311
70300.0;-322
70307.7;-311
70315.4;-308
70323.1;-312
70330.8;-294
70338.5;-281
70346.2;-253
70353.8;-286
70361.5;-270
70369.2;-289
70376.9;-277
70384.6;-303
70392.3;-299
70400.0;-320
70407.7;-328
70415.4;-337
70423.1;-337
70430.8;-338
70438.5;-339
70446.2;-279
70453.8;-280
70461.5;-261
70469.2;-274
70476.9;-237
70484.6;-262
70492.3;-259
70500.0;-282
70507.7;-299
70515.4;-307
70523.1;-325
70530.8;-312
70538.5;-324
70546.2;-316
70553.8;-338
70561.5;-321
70569.2;-354
70576.9;-334
70584.6;-354
70592.3;-339
70600.0;-337
70607.7;-339
70615.4;-344
70623.1;-316
70630.8;-258
70638.5;-265
70646.2;-242
70653.8;-277
70661.5;-263
70669.2;-295
70676.9;-289
70684.6;-306
70692.3;-290
70700.0;-298
70707.7;-296
70715.4;-303
70723.1;-315
70730.8;-301
70738.5;-307
70746.2;-268
70753.8;-300
70761.5;-293
70769.2;-322
70776.9;-287
70784.6;-289
70792.3;-248
70800.0;-239
70807.7;-240
70815.4;-239
70823.1;-259
70830.8;-261
70838.5;-282
70846.2;-257
70853.8;-285
70861.5;-258
70869.2;-290
70876.9;-289
70884.6;-301
70892.3;-288
70900.0;-292
70907.7;-295
70915.4;-286
70923.1;-291
70930.8;-251
70938.5;-252
70946.2;-244
70953.8;-287
70961.5;-247
70969.2;-253
70976.9;-208
70984.6;-197
70992.3;-188
71000.0;-193
71007.7;-171
71015.4;-111
71023.1;-17
71030.8;250
71038.5;620
71046.2;1025
71053.8;1369
71061.5;1408
71069.2;843
71076.9;293
71084.6;-65
71092.3;-157
71100.0;-143
71107.7;-212
71115.4;-282
71123.1;-312
71130.8;-295
71138.5;-323
71146.2;-318
71153.8;-353
71161.5;-343
71169.2;-366
71176.9;-326
71184.6;-325
71192.3;-317
71200.0;-328
71207.7;-321
71215.4;-304
71223.1;-294
71230.8;-266
71238.5;-249
71246.2;-211
71253.8;-212
71261.5;-179
71269.2;-157
71276.9;-111
71284.6;-132
71292.3;-104
71300.0;-89
71307.7;-72
71315.4;-76
71323.1;-84
71330.8;-95
71338.5;-148
71346.2;-165
71353.8;-224
71361.5;-202
71369.2;-228
71376.9;-226
71384.6;-257
71392.3;-248
71400.0;-252
71407.7;-247
71415.4;-236
71423.1;-254
71430.8;-241
71438.5;-253
71446.2;-229
71453.8;-256
71461.5;-238
71469.2;-258
71476.9;-239
71484.6;-247
71492.3;-234
71500.0;-250
71507.7;-244
71515.4;-241
71523.1;-230
71530.8;-228
71538.5;-209
71546.2;-171
71553.8;-188
71561.5;-169
71569.2;-201
71576.9;-178
71584.6;-206
71592.3;-195
71600.0;-225
71607.7;-219
71615.4;-208
71623.1;-227
71630.8;-203
71638.5;-228
71646.2;-201
71653.8;-224
71661.5;-207
71669.2;-234
71676.9;-228
71684.6;-239
71692.3;-234
71700.0;-242
71707.7;-230
71715.4;-222
71723.1;-215
71730.8;-164
71738.5;-147
71746.2;-125
71753.8;-153
71761.5;-81
71769.2;-50
71776.9;155
71784.6;522
71792.3;974
71800.0;1405
71807.7;1661
71815.4;1341
71823.1;607
71830.8;49
71838.5;-192
71846.2;-155
71853.8;-221
71861.5;-238
71869.2;-296
71876.9;-286
71884.6;-303
71892.3;-286
71900.0;-316
71907.7;-310
71915.4;-322
71923.1;-320
71930.8;-273
71938.5;-257
71946.2;-231
71953.8;-246
71961.5;-207
71969.2;-207
71976.9;-163
71984.6;-172
71992.3;-135
72000.0;-131
72007.7;-105
72015.4;-95
72023.1;-91
72030.8;-56
72038.5;-73
72046.2;-44
72053.8;-88
72061.5;-96
72069.2;-160
72076.9;-173
72084.6;-221
72092.3;-230
72100.0;-238
72107.7;-231
72115.4;-227
72123.1;-237
72130.8;-213
72138.5;-229
72146.2;-207
72153.8;-232
72161.5;-202
72169.2;-237
72176.9;-213
72184.6;-222
72192.3;-221
72200.0;-231
72207.7;-228
72215.4;-223
72223.1;-231
72230.8;-235
72238.5;-240
72246.2;-213
72253.8;-222
72261.5;-205
72269.2;-227
72276.9;-192
72284.6;-213
72292.3;-185
